Automatic Gain Control=Checked,IR PA (mA)=10,Red PA (mA)=10,IR LED Range (mA)=51,Red LED Range (mA)=51,ALC + FDM=Checked,Sample Rate (Hz)=100,Pulse Width (usec)=400,ADC Range (nA)=32768,FIFO Rolls on Full=Checked,FIFO Almost Full=17,Sample Averaging=1,IA Gain=5,ECG Gain=8,Sample Rate=200,Adaptive Filter=Checked,Notch Freq=50/60,Cutoff Freq=40,
2020-02-12 19:54:25.171,51,540,33.7500643731391,17,1.06250202656179,-4104,-1.2565422,-2895,-0.886376625
2020-02-12 19:54:25.202,52,476,29.7500567437301,8,0.500000953676135,-3592,-1.0997806,-3886,-1.18979605
2020-02-12 19:54:25.202,53,525,32.8125625849964,0,0,-2348,-0.7188989,-4728,-1.4475954
2020-02-12 19:54:25.202,54,538,33.6250641347201,20,1.25000238419034,-1969,-0.602858575,-5198,-1.59149765
2020-02-12 19:54:25.202,55,497,31.0625592471299,0,0,-2097,-0.642048975,-5335,-1.633443625
2020-02-12 19:54:25.218,56,542,33.8750646115582,15,0.937501788142754,-2644,-0.8095267,-5160,-1.579863
2020-02-12 19:54:25.218,57,476,29.7500567437301,8,0.500000953676135,-5078,-1.55475665,-4905,-1.501788375
2020-02-12 19:54:25.218,58,527,32.9375628234154,0,0,-5861,-1.794491675,-4747,-1.453412725
2020-02-12 19:54:25.218,59,536,33.5000638963011,20,1.25000238419034,-5242,-1.60496935,-4607,-1.410548225
2020-02-12 19:54:25.218,60,499,31.1875594855489,0,0,-4793,-1.467496775,-4466,-1.36737755
2020-02-12 19:54:25.249,61,542,33.8750646115582,17,1.06250202656179,-4990,-1.52781325,-4466,-1.36737755
2020-02-12 19:54:25.249,62,473,29.5625563861015,7,0.437500834466618,-5176,-1.5847618,-4569,-1.398913575
2020-02-12 19:54:25.249,63,529,33.0625630618345,0,0,-4404,-1.3483947,-4615,-1.412997625
2020-02-12 19:54:25.249,64,539,33.6875642539296,22,1.37500262260937,-4815,-1.474232625,-4663,-1.427694025
2020-02-12 19:54:25.280,65,502,31.3750598431775,0,0,-5331,-1.632218925,-4705,-1.440553375
2020-02-12 19:54:25.280,66,545,34.0625649691867,17,1.06250202656179,-4815,-1.474232625,-4631,-1.417896425
2020-02-12 19:54:25.280,67,477,29.8125568629396,7,0.437500834466618,-5467,-1.673858725,-4486,-1.37350105
2020-02-12 19:54:25.280,68,533,33.3125635386725,0,0,-5850,-1.79112375,-4329,-1.325431575
2020-02-12 19:54:25.311,69,543,33.9375647307677,20,1.25000238419034,-5308,-1.6251769,-4074,-1.24735695
2020-02-12 19:54:25.311,70,507,31.6875604392251,0,0,-4743,-1.452188025,-3656,-1.1193758
2020-02-12 19:54:25.311,71,547,34.1875652076058,17,1.06250202656179,-4897,-1.499338975,-3226,-0.98772055
2020-02-12 19:54:25.343,72,477,29.8125568629396,2,0.125000238419034,-4816,-1.4745388,-2935,-0.898623625
2020-02-12 19:54:25.343,73,538,33.6250641347201,0,0,-4195,-1.284404125,-2911,-0.891275425
2020-02-12 19:54:25.343,74,545,34.0625649691867,22,1.37500262260937,-4580,-1.4022815,-3244,-0.9932317
2020-02-12 19:54:25.343,75,510,31.8750607968536,0,0,-4818,-1.47515115,-3633,-1.112333775
2020-02-12 19:54:25.343,76,551,34.4375656844438,17,1.06250202656179,-4075,-1.247663125,-3818,-1.16897615
2020-02-12 19:54:25.343,77,479,29.9375571013586,2,0.125000238419034,-4470,-1.36860225,-4007,-1.226843225
2020-02-12 19:54:25.374,78,539,33.6875642539296,0,0,-4884,-1.4953587,-4493,-1.375644275
2020-02-12 19:54:25.374,79,545,34.0625649691867,21,1.31250250339986,-4223,-1.292977025,-5156,-1.5786383
2020-02-12 19:54:25.374,80,512,32.0000610352727,0,0,-4031,-1.234191425,-5625,-1.722234375
2020-02-12 19:54:25.374,81,551,34.4375656844438,18,1.1250021457713,-4274,-1.30859195,-5791,-1.773059425
2020-02-12 19:54:25.374,82,481,30.0625573397776,0,0,-4805,-1.471170875,-5619,-1.720397325
2020-02-12 19:54:25.374,83,542,33.8750646115582,0,0,-4101,-1.255623675,-5142,-1.57435185
2020-02-12 19:54:25.374,84,548,34.2500653268153,21,1.31250250339986,-4375,-1.339515625,-4726,-1.44698305
2020-02-12 19:54:25.374,85,514,32.1250612736917,0,0,-4629,-1.417284075,-4619,-1.414222325
2020-02-12 19:54:25.374,86,554,34.6250660420724,18,1.1250021457713,-3911,-1.197450425,-4748,-1.4537189
2020-02-12 19:54:25.374,87,484,30.2500576974062,0,0,-4380,-1.3410465,-5027,-1.539141725
2020-02-12 19:54:25.405,88,546,34.1250650883962,0,0,-4665,-1.428306375,-5381,-1.647527675
2020-02-12 19:54:25.405,89,548,34.2500653268153,22,1.37500262260937,-4396,-1.3459453,-5560,-1.702333
2020-02-12 19:54:25.405,90,517,32.3125616313203,0,0,-4000,-1.2247,-5378,-1.64660915
2020-02-12 19:54:25.405,91,555,34.6875661612819,20,1.25000238419034,-4530,-1.38697275,-5003,-1.531793525
2020-02-12 19:54:25.405,92,482,30.1250574589872,0,0,-4621,-1.414834675,-4585,-1.403812375
2020-02-12 19:54:25.405,93,545,34.0625649691867,0,0,-4079,-1.248887825,-4194,-1.28409795
2020-02-12 19:54:25.405,94,548,34.2500653268153,22,1.37500262260937,-4495,-1.376256625,-4061,-1.243376675
2020-02-12 19:54:25.405,95,517,32.3125616313203,0,0,-4639,-1.420345825,-4201,-1.286241175
2020-02-12 19:54:25.405,96,555,34.6875661612819,19,1.18750226498082,-3469,-1.062121075,-4364,-1.3361477
2020-02-12 19:54:25.436,97,483,30.1875575781967,0,0,-3655,-1.119069625,-4470,-1.36860225
2020-02-12 19:54:25.436,98,547,34.1875652076058,0,0,-3893,-1.191939275,-4598,-1.40779265
2020-02-12 19:54:25.436,99,547,34.1875652076058,22,1.37500262260937,-3411,-1.044362925,-4682,-1.43351135
2020-02-12 19:54:25.436,100,518,32.3750617505298,0,0,-3244,-0.9932317,-4573,-1.400138275
2020-02-12 19:54:25.436,101,554,34.6250660420724,19,1.18750226498082,-3739,-1.144788325,-4384,-1.3422712
2020-02-12 19:54:25.436,102,483,30.1875575781967,0,0,-4263,-1.305224025,-4212,-1.2896091
2020-02-12 19:54:25.436,103,546,34.1250650883962,0,0,-3871,-1.185203425,-4055,-1.241539625
2020-02-12 19:54:25.436,104,545,34.0625649691867,21,1.31250250339986,-4283,-1.311347525,-4080,-1.249194
2020-02-12 19:54:25.436,105,517,32.3125616313203,0,0,-4556,-1.3949333,-4308,-1.3190019
2020-02-12 19:54:25.436,106,552,34.5000658036533,20,1.25000238419034,-3891,-1.191326925,-4521,-1.384217175
2020-02-12 19:54:25.468,107,480,30.0000572205681,0,0,-4572,-1.3998321,-4614,-1.41269145
2020-02-12 19:54:25.468,108,547,34.1875652076058,0,0,-5279,-1.616297825,-4636,-1.4194273
2020-02-12 19:54:25.468,109,543,33.9375647307677,23,1.43750274181889,-5043,-1.544040525,-4528,-1.3863604
2020-02-12 19:54:25.468,110,518,32.3750617505298,0,0,-5134,-1.57190245,-4282,-1.31104135
2020-02-12 19:54:25.468,111,552,34.5000658036533,21,1.31250250339986,-5675,-1.737543125,-4137,-1.266645975
2020-02-12 19:54:25.468,112,483,30.1875575781967,0,0,-5813,-1.779795275,-4141,-1.267870675
2020-02-12 19:54:25.468,113,545,34.0625649691867,0,0,-5304,-1.6239522,-4148,-1.2700139
2020-02-12 19:54:25.468,114,545,34.0625649691867,23,1.43750274181889,-5463,-1.672634025,-4205,-1.287465875
2020-02-12 19:54:25.499,115,518,32.3750617505298,0,0,-5675,-1.737543125,-4249,-1.300937575
2020-02-12 19:54:25.499,116,553,34.5625659228629,21,1.31250250339986,-5162,-1.58047535,-4071,-1.246438425
2020-02-12 19:54:25.499,117,479,29.9375571013586,0,0,-5489,-1.680594575,-3724,-1.1401957
2020-02-12 19:54:25.499,118,546,34.1250650883962,0,0,-5671,-1.736318425,-3474,-1.06365195
2020-02-12 19:54:25.499,119,541,33.8125644923487,23,1.43750274181889,-5480,-1.677839,-3429,-1.049874075
2020-02-12 19:54:25.499,120,517,32.3125616313203,0,0,-5203,-1.593028525,-3524,-1.0789607
2020-02-12 19:54:25.499,121,551,34.4375656844438,20,1.25000238419034,-5447,-1.667735225,-3783,-1.158260025
2020-02-12 19:54:25.530,122,482,30.1250574589872,0,0,-5740,-1.7574445,-4095,-1.253786625
2020-02-12 19:54:25.530,123,545,34.0625649691867,0,0,-5530,-1.69314775,-4284,-1.3116537
2020-02-12 19:54:25.530,124,541,33.8125644923487,22,1.37500262260937,-6205,-1.899815875,-4456,-1.3643158
2020-02-12 19:54:25.530,125,520,32.5000619889488,0,0,-6588,-2.0170809,-4658,-1.42616315
2020-02-12 19:54:25.530,126,553,34.5625659228629,21,1.31250250339986,-5662,-1.73356285,-4772,-1.4610671
2020-02-12 19:54:25.530,127,483,30.1875575781967,0,0,-5818,-1.78132615,-4862,-1.48862285
2020-02-12 19:54:25.530,128,549,34.3125654460248,0,0,-5924,-1.8137807,-5063,-1.550164025
2020-02-12 19:54:25.530,129,541,33.8125644923487,23,1.43750274181889,-5547,-1.698352725,-5294,-1.62089045
2020-02-12 19:54:25.561,130,520,32.5000619889488,0,0,-5124,-1.5688407,-5435,-1.664061125
2020-02-12 19:54:25.561,131,553,34.5625659228629,21,1.31250250339986,-5362,-1.64171035,-5550,-1.69927125
2020-02-12 19:54:25.561,132,484,30.2500576974062,0,0,-5484,-1.6790637,-5648,-1.7292764
2020-02-12 19:54:25.561,133,548,34.2500653268153,0,0,-5191,-1.589354425,-5651,-1.730194925
2020-02-12 19:54:25.561,134,541,33.8125644923487,23,1.43750274181889,-5764,-1.7647927,-5623,-1.721622025
2020-02-12 19:54:25.561,135,520,32.5000619889488,0,0,-5865,-1.795716375,-5588,-1.7109059
2020-02-12 19:54:25.561,136,552,34.5000658036533,20,1.25000238419034,-5057,-1.548326975,-5481,-1.678145175
2020-02-12 19:54:25.593,137,485,30.3125578166157,0,0,-5068,-1.5516949,-5342,-1.63558685
2020-02-12 19:54:25.593,138,550,34.3750655652343,0,0,-5294,-1.62089045,-5311,-1.626095425
2020-02-12 19:54:25.593,139,540,33.7500643731391,22,1.37500262260937,-4754,-1.45555595,-5402,-1.65395735
2020-02-12 19:54:25.593,140,521,32.5625621081583,0,0,-4589,-1.405037075,-5536,-1.6949848
2020-02-12 19:54:25.593,141,554,34.6250660420724,20,1.25000238419034,-4757,-1.456474475,-5762,-1.76418035
2020-02-12 19:54:25.593,142,487,30.4375580550347,0,0,-5007,-1.533018225,-5981,-1.831232675
2020-02-12 19:54:25.624,143,551,34.4375656844438,0,0,-4571,-1.399525925,-6012,-1.8407241
2020-02-12 19:54:25.624,144,541,33.8125644923487,22,1.37500262260937,-4824,-1.4769882,-5972,-1.8284771
2020-02-12 19:54:25.624,145,524,32.7500624657869,0,0,-5192,-1.5896606,-5955,-1.823272125
2020-02-12 19:54:25.624,146,553,34.5625659228629,21,1.31250250339986,-4491,-1.375031925,-5871,-1.797553425
2020-02-12 19:54:25.624,147,486,30.3750579358252,0,0,-5022,-1.53761085,-5716,-1.7500963
2020-02-12 19:54:25.624,148,552,34.5000658036533,0,0,-5695,-1.743666625,-5604,-1.7158047
2020-02-12 19:54:25.624,149,540,33.7500643731391,21,1.31250250339986,-5443,-1.666510525,-5530,-1.69314775
2020-02-12 19:54:25.624,150,522,32.6250622273678,0,0,-5221,-1.598539675,-5447,-1.667735225
2020-02-12 19:54:25.655,151,554,34.6250660420724,21,1.31250250339986,-5654,-1.73111345,-5435,-1.664061125
2020-02-12 19:54:25.655,152,488,30.5000581742443,0,0,-5900,-1.8064325,-5437,-1.664673475
2020-02-12 19:54:25.655,153,552,34.5000658036533,0,0,-5170,-1.58292475,-5345,-1.636505375
2020-02-12 19:54:25.655,154,540,33.7500643731391,22,1.37500262260937,-5552,-1.6998836,-5287,-1.618747225
2020-02-12 19:54:25.655,155,522,32.6250622273678,0,0,-5669,-1.735706075,-5315,-1.627320125
2020-02-12 19:54:25.655,156,553,34.5625659228629,22,1.37500262260937,-5147,-1.575882725,-5286,-1.61844105
2020-02-12 19:54:25.655,157,488,30.5000581742443,0,0,-4843,-1.482805525,-5167,-1.582006225
2020-02-12 19:54:25.655,158,553,34.5625659228629,0,0,-5100,-1.5614925,-5036,-1.5418973
2020-02-12 19:54:25.686,159,535,33.4375637770916,21,1.31250250339986,-5316,-1.6276263,-4895,-1.498726625
2020-02-12 19:54:25.686,160,523,32.6875623465774,0,0,-5187,-1.588129725,-4718,-1.44453365
2020-02-12 19:54:25.686,161,555,34.6875661612819,21,1.31250250339986,-5398,-1.65273265,-4636,-1.4194273
2020-02-12 19:54:25.686,162,490,30.6250584126633,0,0,-5523,-1.691004525,-4681,-1.433205175
2020-02-12 19:54:25.686,163,554,34.6250660420724,0,0,-5253,-1.608337275,-4736,-1.4500448
2020-02-12 19:54:25.718,164,536,33.5000638963011,22,1.37500262260937,-5677,-1.738155475,-4884,-1.4953587
2020-02-12 19:54:25.718,165,525,32.8125625849964,0,0,-5936,-1.8174548,-5129,-1.570371575
2020-02-12 19:54:25.718,166,554,34.6250660420724,20,1.25000238419034,-5536,-1.6949848,-5274,-1.61476695
2020-02-12 19:54:25.718,167,489,30.5625582934538,0,0,-5649,-1.729582575,-5304,-1.6239522
2020-02-12 19:54:25.718,168,555,34.6875661612819,1,0.0625001192095169,-5842,-1.78867435,-5383,-1.648140025
2020-02-12 19:54:25.718,169,533,33.3125635386725,21,1.31250250339986,-5557,-1.701414475,-5490,-1.68090075
2020-02-12 19:54:25.749,170,525,32.8125625849964,0,0,-5536,-1.6949848,-5515,-1.688555125
2020-02-12 19:54:25.749,171,553,34.5625659228629,21,1.31250250339986,-5865,-1.795716375,-5552,-1.6998836
2020-02-12 19:54:25.749,172,491,30.6875585318728,0,0,-5993,-1.834906775,-5603,-1.715498525
2020-02-12 19:54:25.749,173,555,34.6875661612819,2,0.125000238419034,-5293,-1.620584275,-5539,-1.695903325
2020-02-12 19:54:25.749,174,534,33.375063657882,21,1.31250250339986,-5498,-1.68335015,-5393,-1.651201775
2020-02-12 19:54:25.749,175,526,32.8750627042059,0,0,-5896,-1.8052078,-5294,-1.62089045
2020-02-12 19:54:25.780,176,556,34.7500662804914,21,1.31250250339986,-5308,-1.6251769,-5239,-1.604050825
2020-02-12 19:54:25.780,177,494,30.8750588895014,0,0,-5287,-1.618747225,-5174,-1.58414945
2020-02-12 19:54:25.780,178,557,34.8125663997009,1,0.0625001192095169,-5333,-1.632831275,-5151,-1.577107425
2020-02-12 19:54:25.780,179,532,33.250063419463,21,1.31250250339986,-4885,-1.495664875,-5188,-1.5884359
2020-02-12 19:54:25.780,180,527,32.9375628234154,0,0,-3694,-1.13101045,-5261,-1.610786675
2020-02-12 19:54:25.780,181,555,34.6875661612819,19,1.18750226498082,-3111,-0.952510425,-5420,-1.6594685
2020-02-12 19:54:25.780,182,495,30.9375590087109,0,0,-2761,-0.845349175,-5599,-1.714273825
2020-02-12 19:54:25.811,183,557,34.8125663997009,1,0.0625001192095169,-2136,-0.6539898,-5675,-1.737543125
2020-02-12 19:54:25.811,184,532,33.250063419463,21,1.31250250339986,-3611,-1.105597925,-5701,-1.745503675
2020-02-12 19:54:25.811,185,527,32.9375628234154,0,0,-5303,-1.623646025,-5729,-1.754076575
2020-02-12 19:54:25.811,186,557,34.8125663997009,19,1.18750226498082,-4616,-1.4133038,-5715,-1.749790125
2020-02-12 19:54:25.811,187,493,30.8125587702918,0,0,-4699,-1.438716325,-5688,-1.7415234
2020-02-12 19:54:25.811,188,556,34.7500662804914,2,0.125000238419034,-5022,-1.53761085,-5717,-1.750402475
2020-02-12 19:54:25.811,189,526,32.8750627042059,20,1.25000238419034,-5173,-1.583843275,-5735,-1.755913625
2020-02-12 19:54:25.843,190,528,33.0000629426249,0,0,-5004,-1.5320997,-5661,-1.733256675
2020-02-12 19:54:25.843,191,556,34.7500662804914,19,1.18750226498082,-5357,-1.640179475,-5634,-1.72498995
2020-02-12 19:54:25.843,192,494,30.8750588895014,0,0,-4992,-1.5284256,-5684,-1.7402987
2020-02-12 19:54:25.843,193,555,34.6875661612819,4,0.250000476838068,-4523,-1.384829525,-5687,-1.741217225
2020-02-12 19:54:25.843,194,526,32.8750627042059,21,1.31250250339986,-5008,-1.5333244,-5609,-1.717335575
2020-02-12 19:54:25.874,195,528,33.0000629426249,0,0,-5436,-1.6643673,-5488,-1.6802884
2020-02-12 19:54:25.874,196,555,34.6875661612819,18,1.1250021457713,-5042,-1.54373435,-5262,-1.61109285
2020-02-12 19:54:25.874,197,494,30.8750588895014,0,0,-5099,-1.561186325,-4859,-1.487704325
2020-02-12 19:54:25.905,198,554,34.6250660420724,3,0.187500357628551,-5546,-1.69804655,-4387,-1.343189725
2020-02-12 19:54:25.905,199,521,32.5625621081583,18,1.1250021457713,-5461,-1.672021675,-3898,-1.19347015
2020-02-12 19:54:25.905,200,528,33.0000629426249,0,0,-5145,-1.575270375,-3421,-1.047424675
2020-02-12 19:54:25.905,201,556,34.7500662804914,18,1.1250021457713,-5467,-1.673858725,-3242,-0.99261935
2020-02-12 19:54:25.905,202,496,31.0000591279204,0,0,-5695,-1.743666625,-3370,-1.03180975
2020-02-12 19:54:25.905,203,556,34.7500662804914,5,0.312500596047585,-5020,-1.5369985,-3512,-1.0752866
2020-02-12 19:54:25.936,204,521,32.5625621081583,19,1.18750226498082,-5407,-1.655488225,-3741,-1.145400675
2020-02-12 19:54:25.936,205,527,32.9375628234154,0,0,-5575,-1.706925625,-4219,-1.291752325
2020-02-12 19:54:25.936,206,555,34.6875661612819,18,1.1250021457713,-4981,-1.525057675,-4794,-1.46780295
2020-02-12 19:54:25.936,207,494,30.8750588895014,0,0,-5111,-1.564860425,-5245,-1.605887875
2020-02-12 19:54:25.936,208,556,34.7500662804914,5,0.312500596047585,-5529,-1.692841575,-5475,-1.676308125
2020-02-12 19:54:25.936,209,516,32.2500615121107,19,1.18750226498082,-4900,-1.5002575,-5423,-1.660387025
2020-02-12 19:54:25.936,210,528,33.0000629426249,0,0,-4536,-1.3888098,-5190,-1.58904825
2020-02-12 19:54:25.936,211,555,34.6875661612819,19,1.18750226498082,-4986,-1.52658855,-5039,-1.542815825
2020-02-12 19:54:25.936,212,497,31.0625592471299,0,0,-5371,-1.644465925,-5004,-1.5320997
2020-02-12 19:54:25.968,213,554,34.6250660420724,6,0.375000715257102,-4695,-1.437491625,-4946,-1.51434155
2020-02-12 19:54:25.968,214,518,32.3750617505298,19,1.18750226498082,-4815,-1.474232625,-4923,-1.507299525
2020-02-12 19:54:25.968,215,530,33.125063181044,0,0,-5147,-1.575882725,-5048,-1.5455714
2020-02-12 19:54:25.968,216,554,34.6250660420724,18,1.1250021457713,-4669,-1.429531075,-5243,-1.605275525
2020-02-12 19:54:25.968,217,499,31.1875594855489,0,0,-4564,-1.3973827,-5410,-1.65640675
2020-02-12 19:54:25.968,218,558,34.8750665189104,7,0.437500834466618,-4674,-1.43106195,-5564,-1.7035577
2020-02-12 19:54:25.968,219,514,32.1250612736917,18,1.1250021457713,-4479,-1.371357825,-5609,-1.717335575
2020-02-12 19:54:25.968,220,531,33.1875633002535,0,0,-3782,-1.15795385,-5461,-1.672021675
2020-02-12 19:54:25.999,221,556,34.7500662804914,18,1.1250021457713,-3978,-1.21796415,-5305,-1.624258375
2020-02-12 19:54:25.999,222,500,31.2500596047585,0,0,-4018,-1.23021115,-5244,-1.6055817
2020-02-12 19:54:25.999,223,558,34.8750665189104,8,0.500000953676135,-3650,-1.11753875,-5213,-1.596090275
2020-02-12 19:54:25.999,224,513,32.0625611544822,18,1.1250021457713,-3509,-1.074368075,-5272,-1.6141546
2020-02-12 19:54:25.999,225,532,33.250063419463,0,0,-3388,-1.0373209,-5382,-1.64783385
2020-02-12 19:54:25.999,226,556,34.7500662804914,20,1.25000238419034,-2993,-0.916381775,-5339,-1.634668325
2020-02-12 19:54:26.030,227,501,31.312559723968,0,0,-3131,-0.958633925,-5148,-1.5761889
2020-02-12 19:54:26.030,228,559,34.93756663812,7,0.437500834466618,-3274,-1.00241695,-5015,-1.535467625
2020-02-12 19:54:26.030,229,509,31.8125606776441,16,1.00000190735227,-3156,-0.9662883,-4968,-1.5210774
2020-02-12 19:54:26.030,230,534,33.375063657882,0,0,-2750,-0.84198125,-4888,-1.4965834
2020-02-12 19:54:26.030,231,558,34.8750665189104,19,1.18750226498082,-3013,-0.922505275,-4854,-1.48617345
2020-02-12 19:54:26.030,232,503,31.437559962387,0,0,-3103,-0.950061025,-4909,-1.503013075
2020-02-12 19:54:26.030,233,560,35.0000667573295,9,0.562501072885652,-2524,-0.7727857,-4921,-1.506687175
2020-02-12 19:54:26.030,234,509,31.8125606776441,18,1.1250021457713,-2984,-0.9136262,-4876,-1.4929093
2020-02-12 19:54:26.061,235,534,33.375063657882,0,0,-3635,-1.112946125,-4825,-1.477294375
2020-02-12 19:54:26.061,236,556,34.7500662804914,19,1.18750226498082,-3288,-1.0067034,-4706,-1.44085955
2020-02-12 19:54:26.061,237,506,31.6250603200156,0,0,-2940,-0.9001545,-4489,-1.374419575
2020-02-12 19:54:26.061,238,558,34.8750665189104,9,0.562501072885652,-3406,-1.04283205,-4290,-1.31349075
2020-02-12 19:54:26.061,239,507,31.6875604392251,17,1.06250202656179,-3461,-1.059671675,-4141,-1.267870675
2020-02-12 19:54:26.061,240,535,33.4375637770916,0,0,-3364,-1.0299727,-3962,-1.21306535
2020-02-12 19:54:26.061,241,558,34.8750665189104,20,1.25000238419034,-3530,-1.08079775,-3774,-1.15550445
2020-02-12 19:54:26.093,242,507,31.6875604392251,0,0,-3678,-1.12611165,-3602,-1.10284235
2020-02-12 19:54:26.093,243,561,35.062566876539,9,0.562501072885652,-3059,-0.936589325,-3439,-1.052935825
2020-02-12 19:54:26.093,244,509,31.8125606776441,16,1.00000190735227,-3120,-0.955266,-3332,-1.0201751
2020-02-12 19:54:26.093,245,537,33.5625640155106,0,0,-3500,-1.0716125,-3279,-1.003947825
2020-02-12 19:54:26.093,246,559,34.93756663812,19,1.18750226498082,-3224,-0.9871082,-3189,-0.976392075
2020-02-12 19:54:26.124,247,508,31.7500605584346,0,0,-3126,-0.95710305,-3053,-0.934752275
2020-02-12 19:54:26.124,248,563,35.187567114958,10,0.625001192095169,-3295,-1.008846625,-2983,-0.913320025
2020-02-12 19:54:26.124,249,508,31.7500605584346,15,0.937501788142754,-3252,-0.9956811,-2960,-0.906278
2020-02-12 19:54:26.124,250,539,33.6875642539296,0,0,-2865,-0.877191375,-2899,-0.887601325
2020-02-12 19:54:26.124,251,559,34.93756663812,19,1.18750226498082,-3238,-0.99139465,-2918,-0.89341865
2020-02-12 19:54:26.124,252,509,31.8125606776441,0,0,-3047,-0.932915225,-3050,-0.93383375
2020-02-12 19:54:26.124,253,563,35.187567114958,11,0.687501311304686,-2446,-0.74890405,-3121,-0.955572175
2020-02-12 19:54:26.155,254,507,31.6875604392251,16,1.00000190735227,-2989,-0.915157075,-3126,-0.95710305
2020-02-12 19:54:26.155,255,540,33.7500643731391,0,0,-3316,-1.0152763,-3197,-0.978841475
2020-02-12 19:54:26.155,256,559,34.93756663812,19,1.18750226498082,-2620,-0.8021785,-3301,-1.010683675
2020-02-12 19:54:26.155,257,511,31.9375609160631,0,0,-2695,-0.825141625,-3360,-1.028748
2020-02-12 19:54:26.155,258,563,35.187567114958,12,0.750001430514203,-2978,-0.91178915,-3406,-1.04283205
2020-02-12 19:54:26.155,259,504,31.5000600815965,14,0.875001668933237,-2594,-0.79421795,-3438,-1.05262965
2020-02-12 19:54:26.186,260,542,33.8750646115582,0,0,-2435,-0.745536125,-3405,-1.042525875
2020-02-12 19:54:26.186,261,560,35.0000667573295,19,1.18750226498082,-3066,-0.93873255,-3391,-1.038239425
2020-02-12 19:54:26.186,262,513,32.0625611544822,0,0,-3129,-0.958021575,-3427,-1.049261725
2020-02-12 19:54:26.186,263,564,35.2500672341675,12,0.750001430514203,-2597,-0.795136475,-3392,-1.0385456
2020-02-12 19:54:26.186,264,505,31.562560200806,14,0.875001668933237,-2707,-0.828815725,-3285,-1.005784875
2020-02-12 19:54:26.218,265,542,33.8750646115582,0,0,-3022,-0.92526085,-3209,-0.982515575
2020-02-12 19:54:26.218,266,559,34.93756663812,19,1.18750226498082,-2756,-0.8438183,-3160,-0.967513
2020-02-12 19:54:26.218,267,514,32.1250612736917,0,0,-2815,-0.861882625,-3137,-0.960470975
2020-02-12 19:54:26.218,268,563,35.187567114958,14,0.875001668933237,-3182,-0.97424885,-3183,-0.974555025
2020-02-12 19:54:26.249,269,503,31.437559962387,13,0.81250154972372,-3570,-1.09304475,-3181,-0.973942675
2020-02-12 19:54:26.249,270,544,34.0000648499772,0,0,-3674,-1.12488695,-3058,-0.93628315
2020-02-12 19:54:26.249,271,560,35.0000667573295,19,1.18750226498082,-3691,-1.130091925,-2975,-0.910870625
2020-02-12 19:54:26.249,272,515,32.1875613929012,0,0,-3754,-1.14938095,-2949,-0.902910075
2020-02-12 19:54:26.249,273,564,35.2500672341675,14,0.875001668933237,-3134,-0.95955245,-2864,-0.8768852
2020-02-12 19:54:26.249,274,504,31.5000600815965,13,0.81250154972372,-3536,-1.0826348,-2809,-0.860045575
2020-02-12 19:54:26.280,275,547,34.1875652076058,0,0,-3848,-1.1781614,-2839,-0.869230825
2020-02-12 19:54:26.280,276,561,35.062566876539,20,1.25000238419034,-3274,-1.00241695,-2828,-0.8658629
2020-02-12 19:54:26.280,277,518,32.3750617505298,0,0,-3096,-0.9479178,-2777,-0.850247975
2020-02-12 19:54:26.280,278,565,35.3125673533771,16,1.00000190735227,-3478,-1.06487665,-2797,-0.856371475
2020-02-12 19:54:26.280,279,500,31.2500596047585,11,0.687501311304686,-3502,-1.07222485,-2824,-0.8646382
2020-02-12 19:54:26.280,280,547,34.1875652076058,0,0,-3217,-0.984964975,-2782,-0.85177885
2020-02-12 19:54:26.280,281,562,35.1250669957485,19,1.18750226498082,-3251,-0.995374925,-2774,-0.84932945
2020-02-12 19:54:26.280,282,520,32.5000619889488,0,0,-3000,-0.918525,-2822,-0.86402585
2020-02-12 19:54:26.311,283,564,35.2500672341675,15,0.937501788142754,-2915,-0.892500125,-2819,-0.863107325
2020-02-12 19:54:26.311,284,503,31.437559962387,11,0.687501311304686,-3216,-0.9846588,-2832,-0.8670876
2020-02-12 19:54:26.311,285,549,34.3125654460248,0,0,-3370,-1.03180975,-2897,-0.886988975
2020-02-12 19:54:26.311,286,562,35.1250669957485,19,1.18750226498082,-3011,-0.921892925,-3043,-0.931690525
2020-02-12 19:54:26.311,287,521,32.5625621081583,0,0,-2810,-0.86035175,-3212,-0.9834341
2020-02-12 19:54:26.311,288,566,35.3750674725866,15,0.937501788142754,-3008,-0.9209744,-3384,-1.0360962
2020-02-12 19:54:26.311,289,498,31.1250593663394,9,0.562501072885652,-3270,-1.00119225,-3517,-1.076817475
2020-02-12 19:54:26.343,290,552,34.5000658036533,0,0,-3013,-0.922505275,-3563,-1.090901525
2020-02-12 19:54:26.343,291,561,35.062566876539,20,1.25000238419034,-3251,-0.995374925,-3622,-1.10896585
2020-02-12 19:54:26.343,292,523,32.6875623465774,0,0,-3589,-1.098862075,-3684,-1.1279487
2020-02-12 19:54:26.343,293,566,35.3750674725866,17,1.06250202656179,-3139,-0.961083325,-3609,-1.104985575
2020-02-12 19:54:26.343,294,500,31.2500596047585,9,0.562501072885652,-3565,-1.091513875,-3470,-1.06242725
2020-02-12 19:54:26.343,295,551,34.4375656844438,0,0,-3540,-1.0838595,-3413,-1.044975275
2020-02-12 19:54:26.374,296,560,35.0000667573295,21,1.31250250339986,-2906,-0.88974455,-3396,-1.0397703
2020-02-12 19:54:26.374,297,523,32.6875623465774,0,0,-3290,-1.00731575,-3346,-1.02446155
2020-02-12 19:54:26.374,298,567,35.4375675917961,16,1.00000190735227,-4138,-1.26695215,-3282,-1.00486635
2020-02-12 19:54:26.374,299,499,31.1875594855489,7,0.437500834466618,-4268,-1.3067549,-3207,-0.981903225
2020-02-12 19:54:26.405,300,553,34.5625659228629,0,0,-3889,-1.190714575,-3159,-0.967206825
2020-02-12 19:54:26.405,301,564,35.2500672341675,20,1.25000238419034,-4337,-1.327880975,-3185,-0.975167375
2020-02-12 19:54:26.405,302,525,32.8125625849964,0,0,-4614,-1.41269145,-3220,-0.9858835
2020-02-12 19:54:26.405,303,567,35.4375675917961,17,1.06250202656179,-4168,-1.2761374,-3163,-0.968431525
2020-02-12 19:54:26.405,304,500,31.2500596047585,5,0.312500596047585,-4050,-1.24000875,-3055,-0.935364625
2020-02-12 19:54:26.405,305,555,34.6875661612819,0,0,-4201,-1.286241175,-3013,-0.922505275
2020-02-12 19:54:26.436,306,561,35.062566876539,21,1.31250250339986,-3645,-1.116007875,-3042,-0.93138435
2020-02-12 19:54:26.436,307,527,32.9375628234154,0,0,-2887,-0.883927225,-3065,-0.938426375
2020-02-12 19:54:26.436,308,569,35.5625678302151,18,1.1250021457713,-2256,-0.6907308,-3119,-0.954959825
2020-02-12 19:54:26.436,309,496,31.0000591279204,4,0.250000476838068,-1693,-0.518354275,-3196,-0.9785353
2020-02-12 19:54:26.436,310,556,34.7500662804914,0,0,-1594,-0.48804295,-3251,-0.995374925
2020-02-12 19:54:26.436,311,563,35.187567114958,20,1.25000238419034,-3794,-1.16162795,-3335,-1.021093625
2020-02-12 19:54:26.468,312,528,33.0000629426249,0,0,-5229,-1.600989075,-3396,-1.0397703
2020-02-12 19:54:26.468,313,568,35.5000677110056,18,1.1250021457713,-4465,-1.367071375,-3350,-1.02568625
2020-02-12 19:54:26.468,314,497,31.0625592471299,3,0.187500357628551,-4692,-1.4365731,-3351,-1.025992425
2020-02-12 19:54:26.468,315,558,34.8750665189104,0,0,-4972,-1.5223021,-3505,-1.073143375
2020-02-12 19:54:26.499,316,562,35.1250669957485,21,1.31250250339986,-4382,-1.34165885,-3670,-1.12366225
2020-02-12 19:54:26.499,317,529,33.0625630618345,0,0,-4599,-1.408098825,-3769,-1.153973575
2020-02-12 19:54:26.499,318,569,35.5625678302151,18,1.1250021457713,-5006,-1.53271205,-3931,-1.203573925
2020-02-12 19:54:26.499,319,497,31.0625592471299,0,0,-5094,-1.55965545,-4156,-1.2724633
2020-02-12 19:54:26.499,320,559,34.93756663812,0,0,-4292,-1.3141031,-4291,-1.313796925
2020-02-12 19:54:26.499,321,565,35.3125673533771,21,1.31250250339986,-4742,-1.45188185,-4334,-1.32696245
2020-02-12 19:54:26.530,322,531,33.1875633002535,0,0,-4638,-1.42003965,-4324,-1.3239007
2020-02-12 19:54:26.530,323,570,35.6250679494246,17,1.06250202656179,-4175,-1.278280625,-4179,-1.279505325
2020-02-12 19:54:26.530,324,499,31.1875594855489,0,0,-4770,-1.46045475,-3858,-1.18122315
2020-02-12 19:54:26.530,325,559,34.93756663812,0,0,-5067,-1.551388725,-3419,-1.046812325
2020-02-12 19:54:26.530,326,564,35.2500672341675,20,1.25000238419034,-4547,-1.392177725,-2899,-0.887601325
2020-02-12 19:54:26.530,327,532,33.250063419463,0,0,-4493,-1.375644275,-2493,-0.763294275
2020-02-12 19:54:26.530,328,570,35.6250679494246,18,1.1250021457713,-4688,-1.4353484,-2525,-0.773091875
2020-02-12 19:54:26.530,329,498,31.1250593663394,0,0,-4667,-1.428918725,-2865,-0.877191375
2020-02-12 19:54:26.530,330,562,35.1250669957485,0,0,-3971,-1.215820925,-3190,-0.97669825
2020-02-12 19:54:26.530,331,566,35.3750674725866,24,1.50000286102841,-3881,-1.188265175,-3628,-1.1108029
2020-02-12 19:54:26.561,332,533,33.3125635386725,0,0,-4679,-1.432592825,-4238,-1.29756965
2020-02-12 19:54:26.561,333,570,35.6250679494246,19,1.18750226498082,-4302,-1.31716485,-4772,-1.4610671
2020-02-12 19:54:26.561,334,499,31.1875594855489,0,0,-4225,-1.293589375,-5102,-1.56210485
2020-02-12 19:54:26.561,335,565,35.3125673533771,0,0,-4384,-1.3422712,-5224,-1.5994582
2020-02-12 19:54:26.561,336,564,35.2500672341675,22,1.37500262260937,-4226,-1.29389555,-5099,-1.561186325
2020-02-12 19:54:26.561,337,536,33.5000638963011,0,0,-4264,-1.3055302,-4817,-1.474844975
2020-02-12 19:54:26.561,338,571,35.6875680686342,21,1.31250250339986,-4279,-1.310122825,-4642,-1.42126435
2020-02-12 19:54:26.561,339,501,31.312559723968,0,0,-3935,-1.204798625,-4582,-1.40289385
2020-02-12 19:54:26.561,340,563,35.187567114958,0,0,-3286,-1.00609105,-4523,-1.384829525
2020-02-12 19:54:26.561,341,566,35.3750674725866,23,1.43750274181889,-3629,-1.111109075,-4540,-1.3900345
2020-02-12 19:54:26.593,342,537,33.5625640155106,0,0,-4101,-1.255623675,-4609,-1.411160575
2020-02-12 19:54:26.593,343,573,35.8125683070532,21,1.31250250339986,-3219,-0.985577325,-4637,-1.419733475
2020-02-12 19:54:26.593,344,504,31.5000600815965,0,0,-3368,-1.0311974,-4683,-1.433817525
2020-02-12 19:54:26.593,345,569,35.5625678302151,0,0,-3465,-1.060896375,-4784,-1.4647412
2020-02-12 19:54:26.593,346,566,35.3750674725866,23,1.43750274181889,-3028,-0.9270979,-4793,-1.467496775
2020-02-12 19:54:26.593,347,539,33.6875642539296,0,0,-2826,-0.86525055,-4582,-1.40289385
2020-02-12 19:54:26.624,348,575,35.9375685454722,22,1.37500262260937,-2908,-0.8903569,-4315,-1.321145125
2020-02-12 19:54:26.624,349,505,31.562560200806,0,0,-2949,-0.902910075,-4202,-1.28654735
2020-02-12 19:54:26.624,350,570,35.6250679494246,0,0,-2381,-0.729002675,-4199,-1.285628825
2020-02-12 19:54:26.655,351,568,35.5000677110056,23,1.43750274181889,-2279,-0.697772825,-4258,-1.30369315
2020-02-12 19:54:26.655,352,541,33.8125644923487,0,0,-2471,-0.756558425,-4362,-1.33553535
2020-02-12 19:54:26.655,353,575,35.9375685454722,20,1.25000238419034,-2157,-0.660419475,-4410,-1.35023175
2020-02-12 19:54:26.655,354,505,31.562560200806,0,0,-2050,-0.62765875,-4371,-1.338290925
2020-02-12 19:54:26.655,355,571,35.6875680686342,0,0,-2003,-0.613268525,-4271,-1.307673425
2020-02-12 19:54:26.655,356,566,35.3750674725866,22,1.37500262260937,-1943,-0.594898025,-4108,-1.2577669
2020-02-12 19:54:26.686,357,543,33.9375647307677,0,0,-2024,-0.6196982,-3927,-1.202349225
2020-02-12 19:54:26.686,358,577,36.0625687838913,20,1.25000238419034,-2489,-0.762069575,-3881,-1.188265175
2020-02-12 19:54:26.686,359,507,31.6875604392251,0,0,-3116,-0.9540413,-3905,-1.195613375
2020-02-12 19:54:26.686,360,572,35.7500681878437,0,0,-2552,-0.7813586,-3780,-1.1573415
2020-02-12 19:54:26.686,361,566,35.3750674725866,23,1.43750274181889,-2755,-0.843512125,-3581,-1.096412675
2020-02-12 19:54:26.686,362,545,34.0625649691867,0,0,-3169,-0.970268575,-3423,-1.048037025
2020-02-12 19:54:26.718,363,576,36.0000686646817,21,1.31250250339986,-2903,-0.888826025,-3274,-1.00241695
2020-02-12 19:54:26.718,364,507,31.6875604392251,0,0,-3223,-0.986802025,-3154,-0.96567595
2020-02-12 19:54:26.718,365,570,35.6250679494246,0,0,-3718,-1.13835865,-3099,-0.948836325
2020-02-12 19:54:26.718,366,566,35.3750674725866,23,1.43750274181889,-3814,-1.16775145,-3039,-0.930465825
2020-02-12 19:54:26.718,367,544,34.0000648499772,0,0,-3610,-1.10529175,-2874,-0.87994695
2020-02-12 19:54:26.718,368,576,36.0000686646817,22,1.37500262260937,-3658,-1.11998815,-2678,-0.81993665
2020-02-12 19:54:26.718,369,508,31.7500605584346,0,0,-4023,-1.231742025,-2534,-0.77584745
2020-02-12 19:54:26.718,370,574,35.8750684262627,0,0,-3714,-1.13713395,-2394,-0.73298295
2020-02-12 19:54:26.749,371,568,35.5000677110056,22,1.37500262260937,-3878,-1.18734665,-2251,-0.689199925
2020-02-12 19:54:26.749,372,544,34.0000648499772,0,0,-4008,-1.2271494,-2134,-0.65337745
2020-02-12 19:54:26.749,373,579,36.1875690223103,22,1.37500262260937,-3848,-1.1781614,-2053,-0.628577275
2020-02-12 19:54:26.749,374,508,31.7500605584346,0,0,-3819,-1.169282325,-2036,-0.6233723
2020-02-12 19:54:26.749,375,575,35.9375685454722,0,0,-3920,-1.200206,-2145,-0.656745375
2020-02-12 19:54:26.749,376,566,35.3750674725866,21,1.31250250339986,-3959,-1.212146825,-2321,-0.710632175
2020-02-12 19:54:26.749,377,547,34.1875652076058,0,0,-3575,-1.094575625,-2420,-0.7409435
2020-02-12 19:54:26.780,378,579,36.1875690223103,22,1.37500262260937,-3972,-1.2161271,-2526,-0.77339805
2020-02-12 19:54:26.780,379,513,32.0625611544822,0,0,-4133,-1.265421275,-2717,-0.831877475
2020-02-12 19:54:26.780,380,576,36.0000686646817,0,0,-3481,-1.065795175,-2907,-0.890050725
2020-02-12 19:54:26.780,381,568,35.5000677110056,21,1.31250250339986,-3637,-1.113558475,-3098,-0.94853015
2020-02-12 19:54:26.780,382,550,34.3750655652343,0,0,-4022,-1.23143585,-3306,-1.01221455
2020-02-12 19:54:26.811,383,579,36.1875690223103,21,1.31250250339986,-3644,-1.1157017,-3451,-1.056609925
2020-02-12 19:54:26.811,384,514,32.1250612736917,0,0,-3212,-0.9834341,-3502,-1.07222485
2020-02-12 19:54:26.811,385,580,36.2500691415198,0,0,-3631,-1.111721425,-3565,-1.091513875
2020-02-12 19:54:26.811,386,569,35.5625678302151,23,1.43750274181889,-3371,-1.032115925,-3692,-1.1303981
2020-02-12 19:54:26.843,387,551,34.4375656844438,0,0,-3323,-1.017419525,-3807,-1.165608225
2020-02-12 19:54:26.843,388,582,36.3750693799389,22,1.37500262260937,-3346,-1.02446155,-3898,-1.19347015
2020-02-12 19:54:26.843,389,515,32.1875613929012,0,0,-2970,-0.90933975,-3962,-1.21306535
2020-02-12 19:54:26.843,390,580,36.2500691415198,0,0,-2922,-0.89464335,-3955,-1.210922125
2020-02-12 19:54:26.843,391,567,35.4375675917961,23,1.43750274181889,-3308,-1.0128269,-3907,-1.196225725
2020-02-12 19:54:26.843,392,553,34.5625659228629,0,0,-3400,-1.040995,-3879,-1.187652825
2020-02-12 19:54:26.874,393,583,36.4375694991484,19,1.18750226498082,-3469,-1.062121075,-3857,-1.180916975
2020-02-12 19:54:26.874,394,517,32.3125616313203,0,0,-3133,-0.959246275,-3822,-1.17020085
2020-02-12 19:54:26.874,395,582,36.3750693799389,0,0,-3338,-1.02201215,-3857,-1.180916975
2020-02-12 19:54:26.874,396,565,35.3125673533771,22,1.37500262260937,-3169,-0.970268575,-3908,-1.1965319
2020-02-12 19:54:26.874,397,553,34.5625659228629,0,0,-2951,-0.903522425,-3878,-1.18734665
2020-02-12 19:54:26.905,398,583,36.4375694991484,21,1.31250250339986,-3024,-0.9258732,-3847,-1.177855225
2020-02-12 19:54:26.905,399,519,32.4375618697393,0,0,-2905,-0.889438375,-3842,-1.17632435
2020-02-12 19:54:26.905,400,582,36.3750693799389,0,0,-2457,-0.752271975,-3791,-1.160709425
2020-02-12 19:54:26.905,401,566,35.3750674725866,23,1.43750274181889,-2812,-0.8609641,-3669,-1.123356075
2020-02-12 19:54:26.905,402,554,34.6250660420724,0,0,-3021,-0.924954675,-3599,-1.101923825
2020-02-12 19:54:26.905,403,583,36.4375694991484,21,1.31250250339986,-2254,-0.69011845,-3558,-1.08937065
2020-02-12 19:54:26.905,404,520,32.5000619889488,0,0,-2481,-0.759620175,-3502,-1.07222485
2020-02-12 19:54:26.936,405,584,36.5000696183579,0,0,-2567,-0.785951225,-3424,-1.0483432
2020-02-12 19:54:26.936,406,566,35.3750674725866,20,1.25000238419034,-2987,-0.914544725,-3290,-1.00731575
2020-02-12 19:54:26.936,407,556,34.7500662804914,0,0,-2864,-0.8768852,-3171,-0.970880925
2020-02-12 19:54:26.936,408,584,36.5000696183579,19,1.18750226498082,-3095,-0.947611625,-3149,-0.964145075
2020-02-12 19:54:26.936,409,524,32.7500624657869,0,0,-3476,-1.0642643,-3194,-0.97792295
2020-02-12 19:54:26.936,410,586,36.6250698567769,0,0,-2990,-0.91546325,-3230,-0.98894525
2020-02-12 19:54:26.936,411,566,35.3750674725866,21,1.31250250339986,-2855,-0.874129625,-3238,-0.99139465
2020-02-12 19:54:26.968,412,558,34.8750665189104,0,0,-2759,-0.844736825,-3264,-0.9993552
2020-02-12 19:54:26.968,413,585,36.5625697375674,19,1.18750226498082,-2492,-0.7629881,-3281,-1.004560175
2020-02-12 19:54:26.968,414,525,32.8125625849964,0,0,-2239,-0.685525825,-3250,-0.99506875
2020-02-12 19:54:26.968,415,587,36.6875699759864,1,0.0625001192095169,-2567,-0.785951225,-3202,-0.98037235
2020-02-12 19:54:26.968,416,566,35.3750674725866,20,1.25000238419034,-2541,-0.777990675,-3120,-0.955266
2020-02-12 19:54:26.968,417,561,35.062566876539,0,0,-2499,-0.765131325,-2953,-0.904134775
2020-02-12 19:54:26.968,418,588,36.750070095196,19,1.18750226498082,-2735,-0.837388625,-2857,-0.874741975
2020-02-12 19:54:26.968,419,527,32.9375628234154,0,0,-2597,-0.795136475,-2806,-0.85912705
2020-02-12 19:54:26.968,420,589,36.8125702144055,1,0.0625001192095169,-2335,-0.714918625,-2683,-0.821467525
2020-02-12 19:54:26.999,421,565,35.3125673533771,21,1.31250250339986,-2796,-0.8560653,-2573,-0.787788275
2020-02-12 19:54:26.999,422,562,35.1250669957485,0,0,-3130,-0.95832775,-2564,-0.7850327
2020-02-12 19:54:26.999,423,591,36.9375704528245,18,1.1250021457713,-2841,-0.869843175,-2634,-0.80646495
2020-02-12 19:54:26.999,424,529,33.0625630618345,0,0,-2812,-0.8609641,-2711,-0.830040425
2020-02-12 19:54:26.999,425,589,36.8125702144055,2,0.125000238419034,-3182,-0.97424885,-2818,-0.86280115
2020-02-12 19:54:26.999,426,563,35.187567114958,21,1.31250250339986,-2673,-0.818405775,-2961,-0.906584175
2020-02-12 19:54:26.999,427,562,35.1250669957485,0,0,-2501,-0.765743675,-3039,-0.930465825
2020-02-12 19:54:27.030,428,591,36.9375704528245,19,1.18750226498082,-2486,-0.76115105,-3056,-0.9356708
2020-02-12 19:54:27.030,429,531,33.1875633002535,0,0,-2942,-0.90076685,-3036,-0.9295473
2020-02-12 19:54:27.030,430,593,37.0625706912435,3,0.187500357628551,-2610,-0.79911675,-2939,-0.899848325
2020-02-12 19:54:27.030,431,564,35.2500672341675,19,1.18750226498082,-2851,-0.872904925,-2786,-0.85300355
2020-02-12 19:54:27.030,432,564,35.2500672341675,0,0,-2967,-0.908421225,-2660,-0.8144255
2020-02-12 19:54:27.061,433,593,37.0625706912435,20,1.25000238419034,-2442,-0.74767935,-2552,-0.7813586
2020-02-12 19:54:27.061,434,533,33.3125635386725,0,0,-2821,-0.863719675,-2464,-0.7544152
2020-02-12 19:54:27.061,435,593,37.0625706912435,5,0.312500596047585,-2426,-0.74278055,-2445,-0.748597875
2020-02-12 19:54:27.093,436,563,35.187567114958,18,1.1250021457713,-1477,-0.452220475,-2452,-0.7507411
2020-02-12 19:54:27.093,437,566,35.3750674725866,0,0,-480,-0.146964,-2473,-0.757170775
2020-02-12 19:54:27.093,438,595,37.1875709296626,17,1.06250202656179,-75,-0.022963125,-2588,-0.7923809
2020-02-12 19:54:27.093,439,534,33.375063657882,0,0,296,0.0906278,-2753,-0.842899775
2020-02-12 19:54:27.093,440,597,37.3125711680816,4,0.250000476838068,-372,-0.1138971,-2835,-0.868006125
2020-02-12 19:54:27.093,441,565,35.3125673533771,19,1.18750226498082,-2618,-0.80156615,-2874,-0.87994695
2020-02-12 19:54:27.124,442,569,35.5625678302151,0,0,-3272,-1.0018046,-2924,-0.8952557
2020-02-12 19:54:27.124,443,594,37.1250708104531,19,1.18750226498082,-2500,-0.7654375,-2904,-0.8891322
2020-02-12 19:54:27.124,444,536,33.5000638963011,0,0,-2564,-0.7850327,-2810,-0.86035175
2020-02-12 19:54:27.124,445,596,37.2500710488721,5,0.312500596047585,-2775,-0.849635625,-2744,-0.8401442
2020-02-12 19:54:27.124,446,562,35.1250669957485,19,1.18750226498082,-2517,-0.770642475,-2736,-0.8376948
2020-02-12 19:54:27.124,447,570,35.6250679494246,0,0,-2522,-0.77217335,-2720,-0.832796
2020-02-12 19:54:27.155,448,594,37.1250708104531,18,1.1250021457713,-2690,-0.82361075,-2731,-0.836163925
2020-02-12 19:54:27.155,449,539,33.6875642539296,0,0,-2870,-0.87872225,-2754,-0.84320595
2020-02-12 19:54:27.155,450,597,37.3125711680816,4,0.250000476838068,-2700,-0.8266725,-2735,-0.837388625
2020-02-12 19:54:27.155,451,561,35.062566876539,19,1.18750226498082,-3080,-0.943019,-2727,-0.834939225
2020-02-12 19:54:27.155,452,571,35.6875680686342,0,0,-2978,-0.91178915,-2660,-0.8144255
2020-02-12 19:54:27.155,453,596,37.2500710488721,18,1.1250021457713,-2482,-0.75992635,-2385,-0.730227375
2020-02-12 19:54:27.155,454,539,33.6875642539296,0,0,-2419,-0.740637325,-1932,-0.5915301
2020-02-12 19:54:27.155,455,599,37.4375714065006,6,0.375000715257102,-2493,-0.763294275,-1428,-0.4372179
2020-02-12 19:54:27.186,456,559,34.93756663812,18,1.1250021457713,-2621,-0.802484675,-929,-0.284436575
2020-02-12 19:54:27.186,457,571,35.6875680686342,0,0,-2465,-0.754721375,-629,-0.192584075
2020-02-12 19:54:27.186,458,596,37.2500710488721,18,1.1250021457713,-2806,-0.85912705,-730,-0.22350775
2020-02-12 19:54:27.186,459,539,33.6875642539296,0,0,-2536,-0.7764598,-1020,-0.3122985
2020-02-12 19:54:27.186,460,600,37.5000715257102,7,0.437500834466618,-2346,-0.71828655,-1313,-0.402007775
2020-02-12 19:54:27.186,461,561,35.062566876539,19,1.18750226498082,-2840,-0.869537,-1778,-0.54437915
2020-02-12 19:54:27.186,462,573,35.8125683070532,0,0,-3024,-0.9258732,-2423,-0.741862025
2020-02-12 19:54:27.218,463,598,37.3750712872911,17,1.06250202656179,-2903,-0.888826025,-2966,-0.90811505
2020-02-12 19:54:27.218,464,543,33.9375647307677,0,0,-2653,-0.812282275,-3201,-0.980066175
2020-02-12 19:54:27.218,465,600,37.5000715257102,8,0.500000953676135,-2822,-0.86402585,-3143,-0.962308025
2020-02-12 19:54:27.218,466,555,34.6875661612819,19,1.18750226498082,-2658,-0.81381315,-2910,-0.89096925
2020-02-12 19:54:27.218,467,575,35.9375685454722,0,0,-2711,-0.830040425,-2674,-0.81871195
2020-02-12 19:54:27.249,468,600,37.5000715257102,18,1.1250021457713,-3016,-0.9234238,-2594,-0.79421795
2020-02-12 19:54:27.249,469,544,34.0000648499772,0,0,-3132,-0.9589401,-2625,-0.803709375
2020-02-12 19:54:27.249,470,602,37.6250717641292,7,0.437500834466618,-2573,-0.787788275,-2645,-0.809832875
2020-02-12 19:54:27.249,471,558,34.8750665189104,17,1.06250202656179,-2886,-0.88362105,-2665,-0.815956375
2020-02-12 19:54:27.249,472,577,36.0625687838913,0,0,-3015,-0.923117625,-2723,-0.833714525
2020-02-12 19:54:27.249,473,601,37.5625716449197,18,1.1250021457713,-2921,-0.894337175,-2773,-0.849023275
2020-02-12 19:54:27.249,474,547,34.1875652076058,0,0,-2874,-0.87994695,-2768,-0.8474924
2020-02-12 19:54:27.280,475,605,37.8125721217577,8,0.500000953676135,-2663,-0.815344025,-2712,-0.8303466
2020-02-12 19:54:27.280,476,555,34.6875661612819,15,0.937501788142754,-2675,-0.819018125,-2576,-0.7887068
2020-02-12 19:54:27.280,477,580,36.2500691415198,0,0,-2414,-0.73910645,-2416,-0.7397188
2020-02-12 19:54:27.280,478,603,37.6875718833387,18,1.1250021457713,-2561,-0.784114175,-2395,-0.733289125
2020-02-12 19:54:27.280,479,550,34.3750655652343,0,0,-2500,-0.7654375,-2536,-0.7764598
2020-02-12 19:54:27.280,480,606,37.8750722409673,9,0.562501072885652,-2259,-0.691649325,-2718,-0.83218365
2020-02-12 19:54:27.311,481,558,34.8750665189104,17,1.06250202656179,-2218,-0.67909615,-2876,-0.8805593
2020-02-12 19:54:27.311,482,581,36.3125692607293,0,0,-2223,-0.680627025,-2983,-0.913320025
2020-02-12 19:54:27.311,483,604,37.7500720025482,18,1.1250021457713,-1936,-0.5927548,-2975,-0.910870625
2020-02-12 19:54:27.311,484,554,34.6250660420724,0,0,-2064,-0.6319452,-2871,-0.879028425
2020-02-12 19:54:27.311,485,608,38.0000724793863,10,0.625001192095169,-2230,-0.68277025,-2779,-0.850860325
2020-02-12 19:54:27.311,486,556,34.7500662804914,16,1.00000190735227,-2198,-0.67297265,-2719,-0.832489825
2020-02-12 19:54:27.311,487,586,36.6250698567769,0,0,-2254,-0.69011845,-2686,-0.82238605
2020-02-12 19:54:27.343,488,606,37.8750722409673,18,1.1250021457713,-2474,-0.75747695,-2770,-0.84810475
2020-02-12 19:54:27.343,489,556,34.7500662804914,0,0,-2165,-0.662868875,-2930,-0.89709275
2020-02-12 19:54:27.343,490,610,38.1250727178053,9,0.562501072885652,-2270,-0.69501725,-3030,-0.92771025
2020-02-12 19:54:27.343,491,558,34.8750665189104,17,1.06250202656179,-2712,-0.8303466,-3017,-0.923729975
2020-02-12 19:54:27.343,492,587,36.6875699759864,0,0,-2725,-0.834326875,-2914,-0.89219395
2020-02-12 19:54:27.343,493,606,37.8750722409673,18,1.1250021457713,-2467,-0.755333725,-2785,-0.852697375
2020-02-12 19:54:27.343,494,556,34.7500662804914,0,0,-2623,-0.803097025,-2671,-0.817793425
2020-02-12 19:54:27.374,495,611,38.1875728370148,10,0.625001192095169,-2782,-0.85177885,-2605,-0.797585875
2020-02-12 19:54:27.374,496,556,34.7500662804914,15,0.937501788142754,-2989,-0.915157075,-2557,-0.782889475
2020-02-12 19:54:27.374,497,588,36.750070095196,0,0,-2929,-0.896786575,-2475,-0.757783125
2020-02-12 19:54:27.374,498,611,38.1875728370148,19,1.18750226498082,-3221,-0.986189675,-2393,-0.732676775
2020-02-12 19:54:27.374,499,561,35.062566876539,0,0,-3552,-1.0875336,-2323,-0.711244525
2020-02-12 19:54:27.374,500,614,38.3750731946434,12,0.750001430514203,-2937,-0.899235975,-2240,-0.685832
2020-02-12 19:54:27.405,501,562,35.1250669957485,15,0.937501788142754,-3280,-1.004254,-2178,-0.66684915
2020-02-12 19:54:27.405,502,593,37.0625706912435,0,0,-3381,-1.035177675,-2148,-0.6576639
2020-02-12 19:54:27.405,503,613,38.3125730754339,19,1.18750226498082,-3159,-0.967206825,-2117,-0.648172475
2020-02-12 19:54:27.405,504,567,35.4375675917961,0,0,-3136,-0.9601648,-2115,-0.647560125
2020-02-12 19:54:27.436,505,618,38.6250736714815,12,0.750001430514203,-2962,-0.90689035,-2162,-0.66195035
2020-02-12 19:54:27.436,506,562,35.1250669957485,14,0.875001668933237,-3106,-0.95097955,-2209,-0.676340575
2020-02-12 19:54:27.436,507,599,37.4375714065006,0,0,-2938,-0.89954215,-2284,-0.6993037
2020-02-12 19:54:27.436,508,617,38.5625735522719,19,1.18750226498082,-3242,-0.99261935,-2414,-0.73910645
2020-02-12 19:54:27.436,509,569,35.5625678302151,0,0,-3391,-1.038239425,-2521,-0.771867175
2020-02-12 19:54:27.436,510,618,38.6250736714815,13,0.81250154972372,-2694,-0.82483545,-2547,-0.779827725
2020-02-12 19:54:27.468,511,561,35.062566876539,14,0.875001668933237,-2589,-0.792687075,-2566,-0.78564505
2020-02-12 19:54:27.468,512,599,37.4375714065006,0,0,-2816,-0.8621888,-2633,-0.806158775
2020-02-12 19:54:27.468,513,616,38.5000734330624,20,1.25000238419034,-2792,-0.8548406,-2722,-0.83340835
2020-02-12 19:54:27.468,514,571,35.6875680686342,0,0,-2853,-0.873517275,-2797,-0.856371475
2020-02-12 19:54:27.468,515,619,38.687573790691,12,0.750001430514203,-3097,-0.948223975,-2915,-0.892500125
2020-02-12 19:54:27.468,516,560,35.0000667573295,12,0.750001430514203,-3141,-0.961695675,-3060,-0.9368955
2020-02-12 19:54:27.499,517,602,37.6250717641292,0,0,-2933,-0.898011275,-3150,-0.96445125
2020-02-12 19:54:27.499,518,618,38.6250736714815,20,1.25000238419034,-3463,-1.060284025,-3249,-0.994762575
2020-02-12 19:54:27.499,519,573,35.8125683070532,0,0,-3274,-1.00241695,-3342,-1.02323685
2020-02-12 19:54:27.499,520,619,38.687573790691,13,0.81250154972372,-2854,-0.87382345,-3337,-1.021705975
2020-02-12 19:54:27.499,521,559,34.93756663812,13,0.81250154972372,-2955,-0.904747125,-3245,-0.993537875
2020-02-12 19:54:27.499,522,601,37.5625716449197,0,0,-3395,-1.039464125,-3137,-0.960470975
2020-02-12 19:54:27.499,523,617,38.5625735522719,18,1.1250021457713,-3245,-0.993537875,-3079,-0.942712825
2020-02-12 19:54:27.530,524,573,35.8125683070532,0,0,-2816,-0.8621888,-3075,-0.941488125
2020-02-12 19:54:27.530,525,621,38.81257402911,14,0.875001668933237,-2760,-0.845043,-3136,-0.9601648
2020-02-12 19:54:27.530,526,556,34.7500662804914,12,0.750001430514203,-2318,-0.70971365,-3177,-0.972717975
2020-02-12 19:54:27.530,527,601,37.5625716449197,0,0,-2251,-0.689199925,-3087,-0.945162225
2020-02-12 19:54:27.530,528,615,38.4375733138529,20,1.25000238419034,-2148,-0.6576639,-2945,-0.901685375
2020-02-12 19:54:27.530,529,574,35.8750684262627,0,0,-2342,-0.71706185,-2873,-0.879640775
2020-02-12 19:54:27.530,530,619,38.687573790691,14,0.875001668933237,-2037,-0.623678475,-2852,-0.8732111
2020-02-12 19:54:27.561,531,556,34.7500662804914,11,0.687501311304686,-1862,-0.57009785,-2854,-0.87382345
2020-02-12 19:54:27.561,532,604,37.7500720025482,0,0,-2207,-0.675728225,-2888,-0.8842334
2020-02-12 19:54:27.561,533,616,38.5000734330624,19,1.18750226498082,-2284,-0.6993037,-2916,-0.8928063
2020-02-12 19:54:27.561,534,575,35.9375685454722,0,0,-2613,-0.800035275,-2947,-0.902297725
2020-02-12 19:54:27.561,535,621,38.81257402911,16,1.00000190735227,-2501,-0.765743675,-3043,-0.931690525
2020-02-12 19:54:27.561,536,556,34.7500662804914,9,0.562501072885652,-2582,-0.79054385,-3128,-0.9577154
2020-02-12 19:54:27.561,537,605,37.8125721217577,0,0,-2163,-0.662256525,-3129,-0.958021575
2020-02-12 19:54:27.561,538,617,38.5625735522719,20,1.25000238419034,-2323,-0.711244525,-3143,-0.962308025
2020-02-12 19:54:27.561,539,578,36.1250689031008,0,0,-2772,-0.8487171,-3217,-0.984964975
2020-02-12 19:54:27.592,540,621,38.81257402911,16,1.00000190735227,-2443,-0.747985525,-3233,-0.989863775
2020-02-12 19:54:27.592,541,558,34.8750665189104,9,0.562501072885652,-2545,-0.779215375,-3138,-0.96077715
2020-02-12 19:54:27.592,542,608,38.0000724793863,0,0,-2581,-0.790237675,-2991,-0.915769425
2020-02-12 19:54:27.592,543,619,38.687573790691,20,1.25000238419034,-2192,-0.6711356,-2820,-0.8634135
2020-02-12 19:54:27.592,544,580,36.2500691415198,0,0,-2315,-0.708795125,-2645,-0.809832875
2020-02-12 19:54:27.592,545,624,39.0000743867386,15,0.937501788142754,-2337,-0.715530975,-2500,-0.7654375
2020-02-12 19:54:27.592,546,557,34.8125663997009,9,0.562501072885652,-1513,-0.463242775,-2383,-0.729615025
2020-02-12 19:54:27.624,547,610,38.1250727178053,0,0,-1664,-0.5094752,-2237,-0.684913475
2020-02-12 19:54:27.624,548,621,38.81257402911,20,1.25000238419034,-2268,-0.6944049,-2098,-0.64235515
2020-02-12 19:54:27.624,549,583,36.4375694991484,0,0,-2523,-0.772479525,-2053,-0.628577275
2020-02-12 19:54:27.624,550,626,39.1250746251576,16,1.00000190735227,-2260,-0.6919555,-2095,-0.641436625
2020-02-12 19:54:27.624,551,559,34.93756663812,7,0.437500834466618,-2214,-0.67787145,-2180,-0.6674615
2020-02-12 19:54:27.655,552,612,38.2500729562244,0,0,-2082,-0.63745635,-2272,-0.6956296
2020-02-12 19:54:27.655,553,622,38.8750741483195,19,1.18750226498082,-1918,-0.58724365,-2353,-0.720429775
2020-02-12 19:54:27.655,554,587,36.6875699759864,0,0,-2434,-0.74522995,-2404,-0.7360447
2020-02-12 19:54:27.686,555,628,39.2500748635766,16,1.00000190735227,-2485,-0.760844875,-2481,-0.759620175
2020-02-12 19:54:27.686,556,557,34.8125663997009,3,0.187500357628551,-2542,-0.77829685,-2579,-0.789625325
2020-02-12 19:54:27.686,557,615,38.4375733138529,0,0,-2248,-0.6882814,-2579,-0.789625325
2020-02-12 19:54:27.686,558,624,39.0000743867386,19,1.18750226498082,-2466,-0.75502755,-2513,-0.769417775
2020-02-12 19:54:27.686,559,591,36.9375704528245,0,0,-2044,-0.6258217,-2448,-0.7495164
2020-02-12 19:54:27.686,560,629,39.3125749827861,17,1.06250202656179,-1990,-0.60928825,-2392,-0.7323706
2020-02-12 19:54:27.717,561,558,34.8750665189104,4,0.250000476838068,-2340,-0.7164495,-2400,-0.73482
2020-02-12 19:54:27.717,562,616,38.5000734330624,0,0,-2769,-0.847798575,-2399,-0.734513825
2020-02-12 19:54:27.717,563,625,39.0625745059481,21,1.31250250339986,-2501,-0.765743675,-2267,-0.694098725
2020-02-12 19:54:27.717,564,588,36.750070095196,0,0,-2199,-0.673278825,-2098,-0.64235515
2020-02-12 19:54:27.717,565,629,39.3125749827861,17,1.06250202656179,-2567,-0.785951225,-2050,-0.62765875
2020-02-12 19:54:27.717,566,556,34.7500662804914,2,0.125000238419034,-2843,-0.870455525,-2065,-0.632251375
2020-02-12 19:54:27.749,567,616,38.5000734330624,0,0,-2230,-0.68277025,-2059,-0.630414325
2020-02-12 19:54:27.749,568,623,38.937574267529,21,1.31250250339986,-1974,-0.60438945,-2068,-0.6331699
2020-02-12 19:54:27.749,569,589,36.8125702144055,0,0,-1190,-0.36434825,-2105,-0.644498375
2020-02-12 19:54:27.749,570,627,39.1875747443671,19,1.18750226498082,-115,-0.035210125,-2171,-0.664705925
2020-02-12 19:54:27.749,571,558,34.8750665189104,1,0.0625001192095169,680,0.208199,-2277,-0.697160475
2020-02-12 19:54:27.780,572,619,38.687573790691,0,0,856,0.2620858,-2361,-0.722879175
2020-02-12 19:54:27.780,573,621,38.81257402911,20,1.25000238419034,-595,-0.182174125,-2368,-0.7250224
2020-02-12 19:54:27.780,574,590,36.875070333615,0,0,-2161,-0.661644175,-2340,-0.7164495
2020-02-12 19:54:27.780,575,628,39.2500748635766,20,1.25000238419034,-2260,-0.6919555,-2333,-0.714306275
2020-02-12 19:54:27.780,576,559,34.93756663812,0,0,-2209,-0.676340575,-2308,-0.7066519
2020-02-12 19:54:27.780,577,621,38.81257402911,0,0,-1865,-0.571016375,-2267,-0.694098725
2020-02-12 19:54:27.811,578,624,39.0000743867386,20,1.25000238419034,-2420,-0.7409435,-2282,-0.69869135
2020-02-12 19:54:27.811,579,595,37.1875709296626,0,0,-2643,-0.809220525,-2338,-0.71583715
2020-02-12 19:54:27.811,580,634,39.6250755788337,19,1.18750226498082,-2044,-0.6258217,-2348,-0.7188989
2020-02-12 19:54:27.811,581,560,35.0000667573295,0,0,-2400,-0.73482,-2337,-0.715530975
2020-02-12 19:54:27.811,582,624,39.0000743867386,0,0,-2503,-0.766356025,-2393,-0.732676775
2020-02-12 19:54:27.811,583,625,39.0625745059481,22,1.37500262260937,-2272,-0.6956296,-2525,-0.773091875
2020-02-12 19:54:27.842,584,595,37.1875709296626,0,0,-2190,-0.67052325,-2521,-0.771867175
2020-02-12 19:54:27.842,585,633,39.5625754596242,19,1.18750226498082,-2384,-0.7299212,-2371,-0.725940925
2020-02-12 19:54:27.842,586,562,35.1250669957485,0,0,-2130,-0.65215275,-2070,-0.63378225
2020-02-12 19:54:27.842,587,626,39.1250746251576,0,0,-1969,-0.602858575,-1589,-0.486512075
2020-02-12 19:54:27.842,588,626,39.1250746251576,22,1.37500262260937,-2170,-0.66439975,-1008,-0.3086244
2020-02-12 19:54:27.842,589,599,37.4375714065006,0,0,-2114,-0.64725395,-483,-0.147882525
2020-02-12 19:54:27.842,590,634,39.6250755788337,19,1.18750226498082,-1902,-0.58234485,-251,-0.076849925
2020-02-12 19:54:27.874,591,566,35.3750674725866,0,0,-1937,-0.593060975,-314,-0.09613895
2020-02-12 19:54:27.874,592,629,39.3125749827861,0,0,-2187,-0.669604725,-498,-0.15247515
2020-02-12 19:54:27.874,593,629,39.3125749827861,22,1.37500262260937,-1676,-0.5131493,-796,-0.2437153
2020-02-12 19:54:27.874,594,601,37.5625716449197,0,0,-1655,-0.506719625,-1298,-0.39741515
2020-02-12 19:54:27.874,595,634,39.6250755788337,19,1.18750226498082,-1889,-0.578364575,-1997,-0.611431475
2020-02-12 19:54:27.874,596,568,35.5000677110056,0,0,-1810,-0.55417675,-2596,-0.7948303
2020-02-12 19:54:27.874,597,634,39.6250755788337,0,0,-1594,-0.48804295,-2808,-0.8597394
2020-02-12 19:54:27.905,598,632,39.5000753404147,22,1.37500262260937,-1681,-0.514680175,-2735,-0.837388625
2020-02-12 19:54:27.905,599,607,37.9375723601768,0,0,-2123,-0.650009525,-2555,-0.782277125
2020-02-12 19:54:27.905,600,643,40.1875766517194,20,1.25000238419034,-1774,-0.54315445,-2351,-0.719817425
2020-02-12 19:54:27.905,601,572,35.7500681878437,0,0,-1545,-0.473040375,-2218,-0.67909615
2020-02-12 19:54:27.936,602,637,39.8125759364623,0,0,-1681,-0.514680175,-2178,-0.66684915
2020-02-12 19:54:27.936,603,636,39.7500758172528,22,1.37500262260937,-1572,-0.4813071,-2148,-0.6576639
2020-02-12 19:54:27.936,604,611,38.1875728370148,0,0,-1379,-0.422215325,-2125,-0.650621875
2020-02-12 19:54:27.936,605,647,40.4375771285575,21,1.31250250339986,-1457,-0.446096975,-2172,-0.6650121
2020-02-12 19:54:27.936,606,576,36.0000686646817,0,0,-1626,-0.49784055,-2242,-0.68644435
2020-02-12 19:54:27.936,607,643,40.1875766517194,0,0,-1288,-0.3943534,-2245,-0.687362875
2020-02-12 19:54:27.936,608,639,39.9375761748813,23,1.43750274181889,-1454,-0.44517845,-2183,-0.668380025
2020-02-12 19:54:27.967,609,616,38.5000734330624,0,0,-1842,-0.56397435,-2060,-0.6307205
2020-02-12 19:54:27.967,610,651,40.6875776053955,20,1.25000238419034,-1213,-0.371390275,-1856,-0.5682608
2020-02-12 19:54:27.967,611,583,36.4375694991484,0,0,-1238,-0.37904465,-2097,-0.642048975
2020-02-12 19:54:27.967,612,646,40.3750770093479,0,0,-1308,-0.4004769,-2049,-0.627352575
2020-02-12 19:54:27.967,613,642,40.1250765325099,21,1.31250250339986,-1588,-0.4862059,-2015,-0.616942625
2020-02-12 19:54:27.967,614,620,38.7500739099005,0,0,-952,-0.2914786,-1991,-0.609594425
2020-02-12 19:54:27.967,615,653,40.8125778438146,22,1.37500262260937,-1217,-0.372614975,-1971,-0.603470925
2020-02-12 19:54:27.999,616,584,36.5000696183579,0,0,-1538,-0.47089715,-1946,-0.59581655
2020-02-12 19:54:27.999,617,648,40.500077247767,0,0,-1135,-0.347508625,-1904,-0.5829572
2020-02-12 19:54:27.999,618,643,40.1875766517194,22,1.37500262260937,-1031,-0.315666425,-1850,-0.56642375
2020-02-12 19:54:27.999,619,621,38.81257402911,0,0,-1300,-0.3980275,-1798,-0.55050265
2020-02-12 19:54:27.999,620,652,40.750077724605,20,1.25000238419034,-1275,-0.390373125,-1760,-0.538868
2020-02-12 19:54:28.030,621,585,36.5625697375674,0,0,-1295,-0.396496625,-1742,-0.53335685
2020-02-12 19:54:28.030,622,651,40.6875776053955,0,0,-1657,-0.507331975,-1739,-0.532438325
2020-02-12 19:54:28.030,623,643,40.1875766517194,22,1.37500262260937,-1798,-0.55050265,-1731,-0.529988925
2020-02-12 19:54:28.030,624,623,38.937574267529,0,0,-1933,-0.591836275,-1704,-0.5217222
2020-02-12 19:54:28.030,625,655,40.9375780822336,21,1.31250250339986,-2111,-0.646335425,-1664,-0.5094752
2020-02-12 19:54:28.030,626,589,36.8125702144055,0,0,-2225,-0.681239375,-1623,-0.496922025
2020-02-12 19:54:28.030,627,653,40.8125778438146,0,0,-1952,-0.5976536,-1579,-0.483450325
2020-02-12 19:54:28.061,628,644,40.2500767709289,22,1.37500262260937,-2348,-0.7188989,-1541,-0.471815675
2020-02-12 19:54:28.061,629,624,39.0000743867386,0,0,-2141,-0.655520675,-1516,-0.4641613
2020-02-12 19:54:28.061,630,658,41.1250784398621,20,1.25000238419034,-1916,-0.5866313,-1499,-0.458956325
2020-02-12 19:54:28.061,631,593,37.0625706912435,0,0,-2172,-0.6650121,-1475,-0.451608125
2020-02-12 19:54:28.061,632,656,41.0000782014431,0,0,-2273,-0.695935775,-1446,-0.44272905
2020-02-12 19:54:28.061,633,646,40.3750770093479,21,1.31250250339986,-2430,-0.74400525,-1417,-0.433849975
2020-02-12 19:54:28.092,634,630,39.3750751019957,0,0,-2139,-0.654908325,-1385,-0.424052375
2020-02-12 19:54:28.092,635,661,41.3125787974907,20,1.25000238419034,-2114,-0.64725395,-1355,-0.414867125
2020-02-12 19:54:28.092,636,597,37.3125711680816,0,0,-2027,-0.620616725,-1330,-0.40721275
2020-02-12 19:54:28.092,637,661,41.3125787974907,0,0,-2120,-0.649091,-1306,-0.39986455
2020-02-12 19:54:28.092,638,651,40.6875776053955,21,1.31250250339986,-2171,-0.664705925,-1291,-0.395271925
2020-02-12 19:54:28.124,639,636,39.7500758172528,0,0,-1905,-0.583263375,-1291,-0.395271925
2020-02-12 19:54:28.124,640,665,41.5625792743288,21,1.31250250339986,-1797,-0.550196475,-1301,-0.398333675
2020-02-12 19:54:28.124,641,601,37.5625716449197,0,0,-2286,-0.69991605,-1320,-0.404151
2020-02-12 19:54:28.124,642,665,41.5625792743288,0,0,-2512,-0.7691116,-1356,-0.4151733
2020-02-12 19:54:28.124,643,650,40.625077486186,21,1.31250250339986,-2063,-0.631639025,-1410,-0.43170675
2020-02-12 19:54:28.124,644,636,39.7500758172528,0,0,-1870,-0.57254725,-1475,-0.451608125
2020-02-12 19:54:28.155,645,667,41.6875795127478,19,1.18750226498082,-2155,-0.659807125,-1556,-0.4764083
2020-02-12 19:54:28.155,646,603,37.6875718833387,0,0,-1783,-0.545910025,-1651,-0.505494925
2020-02-12 19:54:28.155,647,666,41.6250793935383,0,0,-1872,-0.5731596,-1744,-0.5339692
2020-02-12 19:54:28.155,648,651,40.6875776053955,20,1.25000238419034,-2028,-0.6209229,-1833,-0.561218775
2020-02-12 19:54:28.155,649,639,39.9375761748813,0,0,-2156,-0.6601133,-1919,-0.587549825
2020-02-12 19:54:28.155,650,669,41.8125797511668,20,1.25000238419034,-1915,-0.586325125,-1998,-0.61173765
2020-02-12 19:54:28.155,651,607,37.9375723601768,0,0,-1860,-0.5694855,-2064,-0.6319452
2020-02-12 19:54:28.155,652,672,42.0000801087954,0,0,-2173,-0.665318275,-2115,-0.647560125
2020-02-12 19:54:28.155,653,654,40.8750779630241,18,1.1250021457713,-1870,-0.57254725,-2149,-0.657970075
2020-02-12 19:54:28.155,654,644,40.2500767709289,0,0,-1731,-0.529988925,-2170,-0.66439975
2020-02-12 19:54:28.186,655,674,42.1250803472144,20,1.25000238419034,-1982,-0.60683885,-2180,-0.6674615
2020-02-12 19:54:28.186,656,610,38.1250727178053,0,0,-2277,-0.697160475,-2175,-0.665930625
2020-02-12 19:54:28.186,657,674,42.1250803472144,0,0,-1658,-0.50763815,-2160,-0.661338
2020-02-12 19:54:28.186,658,655,40.9375780822336,20,1.25000238419034,-1578,-0.48314415,-2150,-0.65827625
2020-02-12 19:54:28.186,659,647,40.4375771285575,0,0,-1608,-0.4923294,-2148,-0.6576639
2020-02-12 19:54:28.186,660,675,42.1875804664239,20,1.25000238419034,-1504,-0.4604872,-2141,-0.655520675
2020-02-12 19:54:28.186,661,614,38.3750731946434,0,0,-1778,-0.54437915,-2124,-0.6503157
2020-02-12 19:54:28.186,662,676,42.2500805856334,0,0,-1698,-0.51988515,-2109,-0.645723075
2020-02-12 19:54:28.217,663,654,40.8750779630241,20,1.25000238419034,-1214,-0.37169645,-2097,-0.642048975
2020-02-12 19:54:28.217,664,648,40.500077247767,0,0,-1705,-0.522028375,-2089,-0.639599575
2020-02-12 19:54:28.217,665,677,42.312580704843,20,1.25000238419034,-1564,-0.4788577,-2081,-0.637150175
2020-02-12 19:54:28.217,666,615,38.4375733138529,0,0,-2055,-0.629189625,-2072,-0.6343946
2020-02-12 19:54:28.217,667,675,42.1875804664239,1,0.0625001192095169,-1671,-0.511618425,-2060,-0.6307205
2020-02-12 19:54:28.217,668,653,40.8125778438146,20,1.25000238419034,-1696,-0.5192728,-2047,-0.626740225
2020-02-12 19:54:28.249,669,646,40.3750770093479,0,0,-1523,-0.466304525,-2032,-0.6221476
2020-02-12 19:54:28.249,670,672,42.0000801087954,19,1.18750226498082,-1311,-0.401395425,-2012,-0.6160241
2020-02-12 19:54:28.249,671,610,38.1250727178053,0,0,-1426,-0.43660555,-1996,-0.6111253
2020-02-12 19:54:28.249,672,671,41.9375799895859,1,0.0625001192095169,-1156,-0.3539383,-1990,-0.60928825
2020-02-12 19:54:28.249,673,646,40.3750770093479,19,1.18750226498082,-1015,-0.310767625,-1989,-0.608982075
2020-02-12 19:54:28.280,674,643,40.1875766517194,0,0,-1028,-0.3147479,-1982,-0.60683885
2020-02-12 19:54:28.280,675,670,41.8750798703763,19,1.18750226498082,-1595,-0.488349125,-1964,-0.6013277
2020-02-12 19:54:28.280,676,609,38.0625725985958,0,0,-1299,-0.397721325,-1936,-0.5927548
2020-02-12 19:54:28.280,677,669,41.8125797511668,3,0.187500357628551,-887,-0.271577225,-1904,-0.5829572
2020-02-12 19:54:28.280,678,644,40.2500767709289,19,1.18750226498082,-1084,-0.3318937,-1876,-0.5743843
2020-02-12 19:54:28.280,679,641,40.0625764133003,0,0,-1076,-0.3294443,-1849,-0.566117575
2020-02-12 19:54:28.311,680,669,41.8125797511668,18,1.1250021457713,-814,-0.24922645,-1815,-0.555707625
2020-02-12 19:54:28.311,681,607,37.9375723601768,0,0,-979,-0.299745325,-1779,-0.544685325
2020-02-12 19:54:28.311,682,668,41.7500796319573,2,0.125000238419034,-1044,-0.3196467,-1748,-0.5351939
2020-02-12 19:54:28.311,683,639,39.9375761748813,18,1.1250021457713,-488,-0.1494134,-1721,-0.526927175
2020-02-12 19:54:28.311,684,641,40.0625764133003,0,0,-844,-0.2584117,-1691,-0.517741925
2020-02-12 19:54:28.311,685,667,41.6875795127478,18,1.1250021457713,-962,-0.29454035,-1663,-0.509169025
2020-02-12 19:54:28.342,686,609,38.0625725985958,0,0,-930,-0.28474275,-1643,-0.503045525
2020-02-12 19:54:28.342,687,669,41.8125797511668,3,0.187500357628551,-936,-0.2865798,-1629,-0.498759075
2020-02-12 19:54:28.342,688,638,39.8750760556718,20,1.25000238419034,-1307,-0.400170725,-1620,-0.4960035
2020-02-12 19:54:28.342,689,644,40.2500767709289,0,0,-1326,-0.40598805,-1606,-0.49171705
2020-02-12 19:54:28.342,690,668,41.7500796319573,19,1.18750226498082,-986,-0.30188855,-1581,-0.484062675
2020-02-12 19:54:28.374,691,610,38.1250727178053,0,0,-1234,-0.37781995,-1552,-0.4751836
2020-02-12 19:54:28.374,692,670,41.8750798703763,4,0.250000476838068,-1343,-0.411193025,-1519,-0.465079825
2020-02-12 19:54:28.374,693,636,39.7500758172528,16,1.00000190735227,-1350,-0.41333625,-1479,-0.452832825
2020-02-12 19:54:28.374,694,643,40.1875766517194,0,0,-1020,-0.3122985,-1426,-0.43660555
2020-02-12 19:54:28.374,695,669,41.8125797511668,18,1.1250021457713,-1359,-0.416091825,-1371,-0.419765925
2020-02-12 19:54:28.374,696,612,38.2500729562244,0,0,-1702,-0.52110985,-1322,-0.40476335
2020-02-12 19:54:28.405,697,668,41.7500796319573,5,0.312500596047585,-1067,-0.326688725,-1273,-0.389760775
2020-02-12 19:54:28.405,698,633,39.5625754596242,18,1.1250021457713,-1189,-0.364042075,-1224,-0.3747582
2020-02-12 19:54:28.405,699,643,40.1875766517194,0,0,-1319,-0.403844825,-1171,-0.358530925
2020-02-12 19:54:28.405,700,666,41.6250793935383,19,1.18750226498082,-1158,-0.35455065,-1114,-0.34107895
2020-02-12 19:54:28.405,701,609,38.0625725985958,0,0,-824,-0.2522882,-1066,-0.32638255
2020-02-12 19:54:28.405,702,666,41.6250793935383,5,0.312500596047585,-638,-0.19533965,-1030,-0.31536025
2020-02-12 19:54:28.436,703,629,39.3125749827861,18,1.1250021457713,322,0.09858835,-997,-0.305256475
2020-02-12 19:54:28.436,704,643,40.1875766517194,0,0,1788,0.5474409,-969,-0.296683575
2020-02-12 19:54:28.436,705,667,41.6875795127478,18,1.1250021457713,2071,0.634088425,-955,-0.292397125
2020-02-12 19:54:28.436,706,611,38.1875728370148,0,0,1582,0.48436885,-952,-0.2914786
2020-02-12 19:54:28.436,707,670,41.8750798703763,6,0.375000715257102,6,0.00183705,-952,-0.2914786
2020-02-12 19:54:28.436,708,630,39.3750751019957,20,1.25000238419034,-1466,-0.44885255,-961,-0.294234175
2020-02-12 19:54:28.436,709,645,40.3125768901384,0,0,-1427,-0.436911725,-981,-0.300357675
2020-02-12 19:54:28.436,710,670,41.8750798703763,17,1.06250202656179,-919,-0.281374825,-1007,-0.308318225
2020-02-12 19:54:28.467,711,616,38.5000734330624,0,0,-965,-0.295458875,-1040,-0.318422
2020-02-12 19:54:28.467,712,674,42.1250803472144,7,0.437500834466618,-1078,-0.33005665,-1080,-0.330669
2020-02-12 19:54:28.467,713,628,39.2500748635766,16,1.00000190735227,-963,-0.294846525,-1125,-0.344446875
2020-02-12 19:54:28.467,714,647,40.4375771285575,0,0,-1082,-0.33128135,-1170,-0.35822475
2020-02-12 19:54:28.467,715,670,41.8750798703763,17,1.06250202656179,-1339,-0.409968325,-1211,-0.370777925
2020-02-12 19:54:28.467,716,618,38.6250736714815,0,0,-856,-0.2620858,-1245,-0.381187875
2020-02-12 19:54:28.467,717,677,42.312580704843,8,0.500000953676135,-548,-0.1677839,-1265,-0.387311375
2020-02-12 19:54:28.499,718,631,39.4375752212052,17,1.06250202656179,-779,-0.238510325,-1268,-0.3882299
2020-02-12 19:54:28.499,719,651,40.6875776053955,0,0,-986,-0.30188855,-1248,-0.3821064
2020-02-12 19:54:28.499,720,675,42.1875804664239,18,1.1250021457713,-463,-0.141759025,-1189,-0.364042075
2020-02-12 19:54:28.499,721,624,39.0000743867386,0,0,-623,-0.190747025,-1075,-0.329138125
2020-02-12 19:54:28.499,722,681,42.562581181681,8,0.500000953676135,-679,-0.207892825,-79,-0.024187825
2020-02-12 19:54:28.499,723,633,39.5625754596242,17,1.06250202656179,-827,-0.253206725,536,0.1641098
2020-02-12 19:54:28.499,724,659,41.1875785590717,0,0,-811,-0.248307925,709,0.217078075
2020-02-12 19:54:28.499,725,683,42.6875814201001,18,1.1250021457713,-491,-0.150331925,561,0.171764175
2020-02-12 19:54:28.530,726,631,39.4375752212052,0,0,-681,-0.208505175,318,0.09736365
2020-02-12 19:54:28.530,727,688,43.0000820161476,9,0.562501072885652,-405,-0.124000875,28,0.0085729
2020-02-12 19:54:28.530,728,639,39.9375761748813,17,1.06250202656179,-459,-0.140534325,-350,-0.10716125
2020-02-12 19:54:28.530,729,666,41.6250793935383,0,0,-847,-0.259330225,-775,-0.237285625
2020-02-12 19:54:28.530,730,686,42.8750817777286,18,1.1250021457713,-700,-0.2143225,-1153,-0.353019775
2020-02-12 19:54:28.530,731,637,39.8125759364623,0,0,-1048,-0.3208714,-1329,-0.406906575
2020-02-12 19:54:28.530,732,691,43.1875823737762,8,0.500000953676135,-1329,-0.406906575,-1269,-0.388536075
2020-02-12 19:54:28.561,733,641,40.0625764133003,16,1.00000190735227,-1739,-0.532438325,-1037,-0.317503475
2020-02-12 19:54:28.561,734,671,41.9375799895859,0,0,-1593,-0.487736775,-803,-0.245858525
2020-02-12 19:54:28.561,735,689,43.0625821353572,18,1.1250021457713,-1259,-0.385474325,-728,-0.2228954
2020-02-12 19:54:28.561,736,640,40.0000762940908,0,0,-1464,-0.4482402,-763,-0.233611525
2020-02-12 19:54:28.561,737,694,43.3750827314047,9,0.562501072885652,-1425,-0.436299375,-849,-0.259942575
2020-02-12 19:54:28.561,738,640,40.0000762940908,14,0.875001668933237,-1289,-0.394659575,-996,-0.3049503
2020-02-12 19:54:28.592,739,671,41.9375799895859,0,0,-1404,-0.4298697,-1012,-0.3098491
2020-02-12 19:54:28.592,740,688,43.0000820161476,18,1.1250021457713,-1288,-0.3943534,-984,-0.3012762
2020-02-12 19:54:28.592,741,640,40.0000762940908,0,0,-1218,-0.37292115,-926,-0.28351805
2020-02-12 19:54:28.592,742,691,43.1875823737762,10,0.625001192095169,-1519,-0.465079825,-853,-0.261167275
2020-02-12 19:54:28.624,743,633,39.5625754596242,14,0.875001668933237,-1314,-0.40231395,-779,-0.238510325
2020-02-12 19:54:28.624,744,670,41.8750798703763,0,0,-853,-0.261167275,-716,-0.2192213
2020-02-12 19:54:28.624,745,688,43.0000820161476,18,1.1250021457713,-1041,-0.318728175,-672,-0.2057496
2020-02-12 19:54:28.624,746,641,40.0625764133003,0,0,-1015,-0.310767625,-649,-0.198707575
2020-02-12 19:54:28.624,747,691,43.1875823737762,11,0.687501311304686,-723,-0.221364525,-646,-0.19778905
2020-02-12 19:54:28.624,748,634,39.6250755788337,13,0.81250154972372,-1149,-0.351795075,-666,-0.20391255
2020-02-12 19:54:28.655,749,670,41.8750798703763,0,0,-1252,-0.3833311,-705,-0.215853375
2020-02-12 19:54:28.655,750,687,42.9375818969381,18,1.1250021457713,-855,-0.261779625,-750,-0.22963125
2020-02-12 19:54:28.655,751,641,40.0625764133003,0,0,-932,-0.2853551,-788,-0.2412659
2020-02-12 19:54:28.655,752,690,43.1250822545667,13,0.81250154972372,-1330,-0.40721275,-821,-0.251369675
2020-02-12 19:54:28.655,753,631,39.4375752212052,13,0.81250154972372,-1105,-0.338323375,-872,-0.2669846
2020-02-12 19:54:28.655,754,669,41.8125797511668,0,0,-1076,-0.3294443,-951,-0.291172425
2020-02-12 19:54:28.686,755,686,42.8750817777286,18,1.1250021457713,-1058,-0.32393315,-1054,-0.32270845
2020-02-12 19:54:28.686,756,643,40.1875766517194,0,0,-1558,-0.47702065,-1163,-0.356081525
2020-02-12 19:54:28.686,757,690,43.1250822545667,11,0.687501311304686,-1617,-0.495084975,-1253,-0.383637275
2020-02-12 19:54:28.686,758,633,39.5625754596242,12,0.750001430514203,-1736,-0.5315198,-1312,-0.4017016
2020-02-12 19:54:28.686,759,674,42.1250803472144,0,0,-1474,-0.45130195,-1348,-0.4127239
2020-02-12 19:54:28.717,760,690,43.1250822545667,18,1.1250021457713,-1352,-0.4139486,-1364,-0.4176227
2020-02-12 19:54:28.717,761,646,40.3750770093479,0,0,-2191,-0.670829425,-1363,-0.417316525
2020-02-12 19:54:28.717,762,695,43.4375828506143,13,0.81250154972372,-2334,-0.71461245,-1357,-0.415479475
2020-02-12 19:54:28.717,763,632,39.5000753404147,13,0.81250154972372,-2394,-0.73298295,-1347,-0.412417725
2020-02-12 19:54:28.717,764,677,42.312580704843,0,0,-2370,-0.72563475,-1322,-0.40476335
2020-02-12 19:54:28.717,765,691,43.1875823737762,20,1.25000238419034,-2617,-0.801259975,-1280,-0.391904
2020-02-12 19:54:28.749,766,648,40.500077247767,0,0,-2415,-0.739412625,-1228,-0.3759829
2020-02-12 19:54:28.749,767,696,43.5000829698238,12,0.750001430514203,-2133,-0.653071275,-1170,-0.35822475
2020-02-12 19:54:28.749,768,634,39.6250755788337,11,0.687501311304686,-2241,-0.686138175,-1121,-0.343222175
2020-02-12 19:54:28.749,769,679,42.437580943262,0,0,-2543,-0.778603025,-1090,-0.33373075
2020-02-12 19:54:28.749,770,692,43.2500824929857,18,1.1250021457713,-2286,-0.69991605,-1072,-0.3282196
2020-02-12 19:54:28.749,771,650,40.625077486186,0,0,-2497,-0.764518975,-1062,-0.32515785
2020-02-12 19:54:28.780,772,696,43.5000829698238,14,0.875001668933237,-2557,-0.782889475,-1062,-0.32515785
2020-02-12 19:54:28.780,773,634,39.6250755788337,9,0.562501072885652,-2833,-0.867393775,-1071,-0.327913425
2020-02-12 19:54:28.780,774,681,42.562581181681,0,0,-2561,-0.784114175,-1090,-0.33373075
2020-02-12 19:54:28.780,775,695,43.4375828506143,19,1.18750226498082,-2601,-0.796361175,-1120,-0.342916
2020-02-12 19:54:28.780,776,653,40.8125778438146,0,0,-2733,-0.836776275,-1156,-0.3539383
2020-02-12 19:54:28.780,777,697,43.5625830890333,13,0.81250154972372,-2326,-0.71216305,-1200,-0.36741
2020-02-12 19:54:28.780,778,635,39.6875756980432,11,0.687501311304686,-2352,-0.7201236,-1268,-0.3882299
2020-02-12 19:54:28.811,779,682,42.6250813008905,0,0,-2510,-0.76849925,-1359,-0.416091825
2020-02-12 19:54:28.811,780,693,43.3125826121952,18,1.1250021457713,-2237,-0.684913475,-1455,-0.445484625
2020-02-12 19:54:28.811,781,653,40.8125778438146,0,0,-2283,-0.698997525,-1553,-0.475489775
2020-02-12 19:54:28.811,782,697,43.5625830890333,15,0.937501788142754,-2299,-0.703896325,-1660,-0.5082505
2020-02-12 19:54:28.811,783,633,39.5625754596242,9,0.562501072885652,-2402,-0.73543235,-1775,-0.543460625
2020-02-12 19:54:28.811,784,680,42.5000810624715,0,0,-2341,-0.716755675,-1903,-0.582651025
2020-02-12 19:54:28.811,785,692,43.2500824929857,20,1.25000238419034,-2369,-0.725328575,-1995,-0.610819125
2020-02-12 19:54:28.842,786,655,40.9375780822336,0,0,-2421,-0.741249675,-2087,-0.638987225
2020-02-12 19:54:28.842,787,696,43.5000829698238,14,0.875001668933237,-2211,-0.676952925,-2172,-0.6650121
2020-02-12 19:54:28.842,788,629,39.3125749827861,9,0.562501072885652,-2388,-0.7311459,-2246,-0.68766905
2020-02-12 19:54:28.842,789,682,42.6250813008905,0,0,-2350,-0.71951125,-2305,-0.705733375
2020-02-12 19:54:28.874,790,691,43.1875823737762,19,1.18750226498082,-1935,-0.592448625,-2355,-0.721042125
2020-02-12 19:54:28.874,791,654,40.8750779630241,0,0,-2347,-0.718592725,-2403,-0.735738525
2020-02-12 19:54:28.874,792,697,43.5625830890333,16,1.00000190735227,-2338,-0.71583715,-2448,-0.7495164
2020-02-12 19:54:28.874,793,631,39.4375752212052,6,0.375000715257102,-2237,-0.684913475,-2484,-0.7605387
2020-02-12 19:54:28.874,794,683,42.6875814201001,0,0,-2182,-0.66807385,-2503,-0.766356025
2020-02-12 19:54:28.874,795,694,43.3750827314047,21,1.31250250339986,-2341,-0.716755675,-2510,-0.76849925
2020-02-12 19:54:28.874,796,657,41.0625783206526,0,0,-2489,-0.762069575,-2512,-0.7691116
2020-02-12 19:54:28.905,797,699,43.6875833274523,15,0.937501788142754,-1961,-0.600409175,-2509,-0.768193075
2020-02-12 19:54:28.905,798,632,39.5000753404147,6,0.375000715257102,-2113,-0.646947775,-2507,-0.767580725
2020-02-12 19:54:28.905,799,687,42.9375818969381,0,0,-2163,-0.662256525,-2507,-0.767580725
2020-02-12 19:54:28.905,800,694,43.3750827314047,20,1.25000238419034,-2300,-0.7042025,-2503,-0.766356025
2020-02-12 19:54:28.905,801,660,41.2500786782812,0,0,-2346,-0.71828655,-2487,-0.761457225
2020-02-12 19:54:28.905,802,700,43.7500834466618,18,1.1250021457713,-2207,-0.675728225,-2463,-0.754109025
2020-02-12 19:54:28.936,803,631,39.4375752212052,3,0.187500357628551,-1799,-0.550808825,-2435,-0.745536125
2020-02-12 19:54:28.936,804,691,43.1875823737762,0,0,-1756,-0.5376433,-2405,-0.736350875
2020-02-12 19:54:28.936,805,697,43.5625830890333,19,1.18750226498082,-2392,-0.7323706,-2382,-0.72930885
2020-02-12 19:54:28.936,806,664,41.5000791551192,0,0,-2619,-0.801872325,-2364,-0.7237977
2020-02-12 19:54:28.936,807,703,43.9375838042904,16,1.00000190735227,-2001,-0.612656175,-2344,-0.7176742
2020-02-12 19:54:28.936,808,632,39.5000753404147,3,0.187500357628551,-2190,-0.67052325,-2327,-0.712469225
2020-02-12 19:54:28.936,809,692,43.2500824929857,0,0,-2220,-0.6797085,-2317,-0.709407475
2020-02-12 19:54:28.936,810,696,43.5000829698238,19,1.18750226498082,-2168,-0.6637874,-2309,-0.706958075
2020-02-12 19:54:28.936,811,663,41.4375790359097,0,0,-1931,-0.591223925,-2301,-0.704508675
2020-02-12 19:54:28.967,812,700,43.7500834466618,18,1.1250021457713,-1941,-0.594285675,-2297,-0.703283975
2020-02-12 19:54:28.967,813,631,39.4375752212052,1,0.0625001192095169,-2042,-0.62520935,-2295,-0.702671625
2020-02-12 19:54:28.967,814,691,43.1875823737762,0,0,-1857,-0.568566975,-2288,-0.7005284
2020-02-12 19:54:28.967,815,694,43.3750827314047,19,1.18750226498082,-1888,-0.5780584,-2277,-0.697160475
2020-02-12 19:54:28.967,816,662,41.3750789167002,0,0,-1920,-0.587856,-2263,-0.692874025
2020-02-12 19:54:28.967,817,700,43.7500834466618,17,1.06250202656179,-1948,-0.5964289,-2252,-0.6895061
2020-02-12 19:54:28.967,818,631,39.4375752212052,1,0.0625001192095169,-2001,-0.612656175,-2247,-0.687975225
2020-02-12 19:54:28.999,819,691,43.1875823737762,0,0,-1669,-0.511006075,-2240,-0.685832
2020-02-12 19:54:28.999,820,693,43.3125826121952,20,1.25000238419034,-1631,-0.499371425,-2226,-0.68154555
2020-02-12 19:54:28.999,821,664,41.5000791551192,0,0,-2341,-0.716755675,-2208,-0.6760344
2020-02-12 19:54:28.999,822,699,43.6875833274523,19,1.18750226498082,-2263,-0.692874025,-2200,-0.673585
2020-02-12 19:54:28.999,823,630,39.3750751019957,0,0,-2145,-0.656745375,-2196,-0.6723603
2020-02-12 19:54:29.030,824,693,43.3125826121952,0,0,-2059,-0.630414325,-2187,-0.669604725
2020-02-12 19:54:29.030,825,696,43.5000829698238,20,1.25000238419034,-1956,-0.5988783,-2176,-0.6662368
2020-02-12 19:54:29.030,826,665,41.5625792743288,0,0,-2366,-0.72441005,-2172,-0.6650121
2020-02-12 19:54:29.030,827,703,43.9375838042904,18,1.1250021457713,-2255,-0.690424625,-2171,-0.664705925
2020-02-12 19:54:29.030,828,630,39.3750751019957,0,0,-2356,-0.7213483,-2167,-0.663481225
2020-02-12 19:54:29.030,829,695,43.4375828506143,0,0,-2241,-0.686138175,-2157,-0.660419475
2020-02-12 19:54:29.030,830,695,43.4375828506143,20,1.25000238419034,-2178,-0.66684915,-2145,-0.656745375
2020-02-12 19:54:29.030,831,667,41.6875795127478,0,0,-2362,-0.72318535,-2135,-0.653683625
2020-02-12 19:54:29.061,832,703,43.9375838042904,20,1.25000238419034,-2060,-0.6307205,-2126,-0.65092805
2020-02-12 19:54:29.061,833,631,39.4375752212052,0,0,-1932,-0.5915301,-2107,-0.645110725
2020-02-12 19:54:29.061,834,694,43.3750827314047,0,0,-1912,-0.5854066,-2081,-0.637150175
2020-02-12 19:54:29.061,835,696,43.5000829698238,19,1.18750226498082,-1426,-0.43660555,-2055,-0.629189625
2020-02-12 19:54:29.061,836,668,41.7500796319573,0,0,-891,-0.272801925,-2026,-0.62031055
2020-02-12 19:54:29.061,837,703,43.9375838042904,19,1.18750226498082,341,0.104405675,-1992,-0.6099006
2020-02-12 19:54:29.092,838,633,39.5625754596242,0,0,1164,0.3563877,-1965,-0.601633875
2020-02-12 19:54:29.092,839,697,43.5625830890333,0,0,827,0.253206725,-1951,-0.597347425
2020-02-12 19:54:29.092,840,695,43.4375828506143,20,1.25000238419034,-62,-0.01898285,-1947,-0.596122725
2020-02-12 19:54:29.092,841,669,41.8125797511668,0,0,-1562,-0.47824535,-1949,-0.596735075
2020-02-12 19:54:29.092,842,703,43.9375838042904,19,1.18750226498082,-1865,-0.571016375,-1958,-0.59949065
2020-02-12 19:54:29.092,843,635,39.6875756980432,0,0,-1793,-0.548971775,-1976,-0.6050018
2020-02-12 19:54:29.092,844,699,43.6875833274523,0,0,-1376,-0.4212968,-2002,-0.61296235
2020-02-12 19:54:29.092,845,697,43.5625830890333,21,1.31250250339986,-1802,-0.55172735,-2032,-0.6221476
2020-02-12 19:54:29.124,846,675,42.1875804664239,0,0,-1570,-0.48069475,-2065,-0.632251375
2020-02-12 19:54:29.124,847,709,44.3125845195475,19,1.18750226498082,-1130,-0.34597775,-2105,-0.644498375
2020-02-12 19:54:29.124,848,637,39.8125759364623,0,0,-1779,-0.544685325,-2149,-0.657970075
2020-02-12 19:54:29.124,849,704,44.0000839234999,0,0,-1816,-0.5560138,-2180,-0.6674615
2020-02-12 19:54:29.124,850,699,43.6875833274523,21,1.31250250339986,-1800,-0.551115,-2173,-0.665318275
2020-02-12 19:54:29.124,851,677,42.312580704843,0,0,-1519,-0.465079825,-2163,-0.662256525
2020-02-12 19:54:29.124,852,708,44.250084400338,20,1.25000238419034,-1515,-0.463855125,-2137,-0.654295975
2020-02-12 19:54:29.155,853,643,40.1875766517194,0,0,-1854,-0.56764845,-2085,-0.638374875
2020-02-12 19:54:29.155,854,705,44.0625840427094,0,0,-1351,-0.413642425,-1988,-0.6086759
2020-02-12 19:54:29.155,855,704,44.0000839234999,21,1.31250250339986,-1579,-0.483450325,-1274,-0.39006695
2020-02-12 19:54:29.155,856,679,42.437580943262,0,0,-1487,-0.455282225,-529,-0.161966575
2020-02-12 19:54:29.155,857,714,44.6250851155951,21,1.31250250339986,-1136,-0.3478148,-163,-0.049906525
2020-02-12 19:54:29.186,858,646,40.3750770093479,0,0,-1464,-0.4482402,-132,-0.0404151
2020-02-12 19:54:29.186,859,713,44.5625849963856,0,0,-1503,-0.460181025,-293,-0.089709275
2020-02-12 19:54:29.186,860,706,44.1250841619189,21,1.31250250339986,-1160,-0.355163,-547,-0.167477725
2020-02-12 19:54:29.186,861,685,42.8125816585191,0,0,-1266,-0.38761755,-884,-0.2706587
2020-02-12 19:54:29.186,862,716,44.7500853540141,19,1.18750226498082,-1204,-0.3686347,-1251,-0.383024925
2020-02-12 19:54:29.186,863,650,40.625077486186,0,0,-1126,-0.34475305,-1549,-0.474265075
2020-02-12 19:54:29.186,864,715,44.6875852348046,0,0,-979,-0.299745325,-1694,-0.51866045
2020-02-12 19:54:29.186,865,707,44.1875842811285,21,1.31250250339986,-1062,-0.32515785,-1706,-0.52233455
2020-02-12 19:54:29.217,866,685,42.8125816585191,0,0,-1255,-0.384249625,-1624,-0.4972282
2020-02-12 19:54:29.217,867,716,44.7500853540141,20,1.25000238419034,-1068,-0.3269949,-1505,-0.460793375
2020-02-12 19:54:29.217,868,651,40.6875776053955,0,0,-783,-0.239735025,-1418,-0.43415615
2020-02-12 19:54:29.217,869,716,44.7500853540141,0,0,-960,-0.293928,-1432,-0.4384426
2020-02-12 19:54:29.217,870,706,44.1250841619189,20,1.25000238419034,-641,-0.196258175,-1521,-0.465692175
2020-02-12 19:54:29.217,871,688,43.0000820161476,0,0,-538,-0.16472215,-1621,-0.496309675
2020-02-12 19:54:29.249,872,719,44.9375857116427,21,1.31250250339986,-694,-0.21248545,-1684,-0.5155987
2020-02-12 19:54:29.249,873,654,40.8750779630241,0,0,-721,-0.220752175,-1698,-0.51988515
2020-02-12 19:54:29.249,874,717,44.8125854732236,0,0,-601,-0.184011175,-1670,-0.51131225
2020-02-12 19:54:29.249,875,709,44.3125845195475,20,1.25000238419034,-1115,-0.341385125,-1628,-0.4984529
2020-02-12 19:54:29.249,876,689,43.0625821353572,0,0,-1019,-0.311992325,-1582,-0.48436885
2020-02-12 19:54:29.280,877,720,45.0000858308522,20,1.25000238419034,-227,-0.069501725,-1533,-0.469366275
2020-02-12 19:54:29.280,878,654,40.8750779630241,0,0,-400,-0.12247,-1486,-0.45497605
2020-02-12 19:54:29.280,879,718,44.8750855924332,0,0,-783,-0.239735025,-1450,-0.44395375
2020-02-12 19:54:29.311,880,706,44.1250841619189,22,1.37500262260937,-825,-0.252594375,-1424,-0.4359932
2020-02-12 19:54:29.311,881,690,43.1250822545667,0,0,-757,-0.231774475,-1401,-0.428951175
2020-02-12 19:54:29.311,882,721,45.0625859500617,21,1.31250250339986,-774,-0.23697945,-1378,-0.42190915
2020-02-12 19:54:29.311,883,658,41.1250784398621,0,0,-681,-0.208505175,-1347,-0.412417725
2020-02-12 19:54:29.311,884,719,44.9375857116427,0,0,-600,-0.183705,-1297,-0.397108975
2020-02-12 19:54:29.311,885,708,44.250084400338,21,1.31250250339986,-710,-0.21738425,-1233,-0.377513775
2020-02-12 19:54:29.342,886,692,43.2500824929857,0,0,-791,-0.242184425,-1165,-0.356693875
2020-02-12 19:54:29.342,887,723,45.1875861884807,21,1.31250250339986,-819,-0.250757325,-1105,-0.338323375
2020-02-12 19:54:29.342,888,659,41.1875785590717,0,0,-1339,-0.409968325,-1064,-0.3257702
2020-02-12 19:54:29.342,889,719,44.9375857116427,0,0,-1161,-0.355469175,-1039,-0.318115825
2020-02-12 19:54:29.342,890,707,44.1875842811285,21,1.31250250339986,-1207,-0.369553225,-1012,-0.3098491
2020-02-12 19:54:29.342,891,693,43.3125826121952,0,0,-1594,-0.48804295,-971,-0.297295925
2020-02-12 19:54:29.374,892,722,45.1250860692712,19,1.18750226498082,-1794,-0.54927795,-921,-0.281987175
2020-02-12 19:54:29.374,893,658,41.1250784398621,0,0,-1844,-0.5645867,-865,-0.264841375
2020-02-12 19:54:29.374,894,721,45.0625859500617,0,0,-1708,-0.5229469,-806,-0.24677705
2020-02-12 19:54:29.374,895,708,44.250084400338,20,1.25000238419034,-2079,-0.636537825,-760,-0.232693
2020-02-12 19:54:29.374,896,694,43.3750827314047,0,0,-2295,-0.702671625,-738,-0.22595715
2020-02-12 19:54:29.374,897,721,45.0625859500617,20,1.25000238419034,-2161,-0.661644175,-732,-0.2241201
2020-02-12 19:54:29.374,898,657,41.0625783206526,0,0,-2065,-0.632251375,-728,-0.2228954
2020-02-12 19:54:29.405,899,723,45.1875861884807,0,0,-2257,-0.691036975,-720,-0.220446
2020-02-12 19:54:29.405,900,705,44.0625840427094,20,1.25000238419034,-2384,-0.7299212,-707,-0.216465725
2020-02-12 19:54:29.405,901,693,43.3125826121952,0,0,-2337,-0.715530975,-695,-0.212791625
2020-02-12 19:54:29.405,902,723,45.1875861884807,19,1.18750226498082,-1992,-0.6099006,-692,-0.2118731
2020-02-12 19:54:29.405,903,662,41.3750789167002,0,0,-1981,-0.606532675,-692,-0.2118731
2020-02-12 19:54:29.405,904,724,45.2500863076903,0,0,-1779,-0.544685325,-698,-0.21371015
2020-02-12 19:54:29.436,905,706,44.1250841619189,20,1.25000238419034,-2142,-0.65582685,-719,-0.220139825
2020-02-12 19:54:29.436,906,696,43.5000829698238,0,0,-2289,-0.700834575,-753,-0.230549775
2020-02-12 19:54:29.436,907,723,45.1875861884807,20,1.25000238419034,-2195,-0.672054125,-788,-0.2412659
2020-02-12 19:54:29.436,908,662,41.3750789167002,0,0,-2195,-0.672054125,-832,-0.2547376
2020-02-12 19:54:29.436,909,724,45.2500863076903,0,0,-2146,-0.65705155,-893,-0.273414275
2020-02-12 19:54:29.436,910,702,43.8750836850809,19,1.18750226498082,-1634,-0.50028995,-971,-0.297295925
2020-02-12 19:54:29.436,911,697,43.5625830890333,0,0,-1817,-0.556319975,-1062,-0.32515785
2020-02-12 19:54:29.436,912,724,45.2500863076903,20,1.25000238419034,-1966,-0.60194005,-1167,-0.357306225
2020-02-12 19:54:29.467,913,664,41.5000791551192,0,0,-2220,-0.6797085,-1368,-0.4188474
2020-02-12 19:54:29.467,914,725,45.3125864268998,0,0,-1960,-0.600103,-1537,-0.470590975
2020-02-12 19:54:29.467,915,704,44.0000839234999,19,1.18750226498082,-2242,-0.68644435,-1631,-0.499371425
2020-02-12 19:54:29.467,916,698,43.6250832082428,0,0,-2092,-0.6405181,-1696,-0.5192728
2020-02-12 19:54:29.467,917,725,45.3125864268998,19,1.18750226498082,-2015,-0.616942625,-1770,-0.54192975
2020-02-12 19:54:29.467,918,666,41.6250793935383,0,0,-2138,-0.65460215,-1880,-0.575609
2020-02-12 19:54:29.467,919,728,45.5000867845283,1,0.0625001192095169,-1914,-0.58601895,-1973,-0.604083275
2020-02-12 19:54:29.499,920,703,43.9375838042904,20,1.25000238419034,-1814,-0.55540145,-2042,-0.62520935
2020-02-12 19:54:29.499,921,701,43.8125835658714,0,0,-1871,-0.572853425,-2090,-0.63990575
2020-02-12 19:54:29.499,922,727,45.4375866653188,18,1.1250021457713,-2108,-0.6454169,-2125,-0.650621875
2020-02-12 19:54:29.499,923,668,41.7500796319573,0,0,-2030,-0.62153525,-2147,-0.657357725
2020-02-12 19:54:29.499,924,727,45.4375866653188,1,0.0625001192095169,-1633,-0.499983775,-2155,-0.659807125
2020-02-12 19:54:29.499,925,701,43.8125835658714,19,1.18750226498082,-1827,-0.559381725,-2155,-0.659807125
2020-02-12 19:54:29.530,926,699,43.6875833274523,0,0,-1954,-0.59826595,-2153,-0.659194775
2020-02-12 19:54:29.530,927,727,45.4375866653188,17,1.06250202656179,-1729,-0.529376575,-2144,-0.6564392
2020-02-12 19:54:29.530,928,668,41.7500796319573,0,0,-1891,-0.578976925,-2123,-0.650009525
2020-02-12 19:54:29.530,929,731,45.6875871421569,1,0.0625001192095169,-1902,-0.58234485,-2098,-0.64235515
2020-02-12 19:54:29.530,930,702,43.8750836850809,17,1.06250202656179,-1826,-0.55907555,-2074,-0.63500695
2020-02-12 19:54:29.530,931,703,43.9375838042904,0,0,-1718,-0.52600865,-2054,-0.62888345
2020-02-12 19:54:29.530,932,731,45.6875871421569,19,1.18750226498082,-1984,-0.6074512,-2043,-0.625515525
2020-02-12 19:54:29.561,933,673,42.0625802280049,0,0,-1522,-0.46599835,-2040,-0.624597
2020-02-12 19:54:29.561,934,730,45.6250870229474,4,0.250000476838068,-1562,-0.47824535,-2041,-0.624903175
2020-02-12 19:54:29.561,935,701,43.8125835658714,20,1.25000238419034,-1717,-0.525702475,-2045,-0.626127875
2020-02-12 19:54:29.561,936,706,44.1250841619189,0,0,-1704,-0.5217222,-2044,-0.6258217
2020-02-12 19:54:29.561,937,730,45.6250870229474,18,1.1250021457713,-1859,-0.569179325,-2036,-0.6233723
2020-02-12 19:54:29.561,938,675,42.1875804664239,0,0,-1867,-0.571628725,-2027,-0.620616725
2020-02-12 19:54:29.592,939,735,45.9375876189949,4,0.250000476838068,-2007,-0.614493225,-2024,-0.6196982
2020-02-12 19:54:29.592,940,703,43.9375838042904,19,1.18750226498082,-1747,-0.534887725,-2022,-0.61908585
2020-02-12 19:54:29.592,941,710,44.375084638757,0,0,-1557,-0.476714475,-2013,-0.616330275
2020-02-12 19:54:29.592,942,736,46.0000877382045,18,1.1250021457713,-1992,-0.6099006,-2002,-0.61296235
2020-02-12 19:54:29.592,943,683,42.6875814201001,0,0,-1921,-0.588162175,-1988,-0.6086759
2020-02-12 19:54:29.592,944,739,46.187588095833,4,0.250000476838068,-1418,-0.43415615,-1969,-0.602858575
2020-02-12 19:54:29.592,945,706,44.1250841619189,18,1.1250021457713,-1516,-0.4641613,-1947,-0.596122725
2020-02-12 19:54:29.592,946,712,44.5000848771761,0,0,-1710,-0.52355925,-1925,-0.589386875
2020-02-12 19:54:29.592,947,738,46.1250879766235,17,1.06250202656179,-1566,-0.47947005,-1906,-0.58356955
2020-02-12 19:54:29.639,948,682,42.6250813008905,0,0,-1229,-0.376289075,-1891,-0.578976925
2020-02-12 19:54:29.639,949,743,46.4375885726711,5,0.312500596047585,-1488,-0.4555884,-1878,-0.57499665
2020-02-12 19:54:29.639,950,706,44.1250841619189,18,1.1250021457713,-1519,-0.465079825,-1858,-0.56887315
2020-02-12 19:54:29.639,951,719,44.9375857116427,0,0,-1763,-0.539786525,-1833,-0.561218775
2020-02-12 19:54:29.639,952,739,46.187588095833,17,1.06250202656179,-2004,-0.6135747,-1813,-0.555095275
2020-02-12 19:54:29.639,953,690,43.1250822545667,0,0,-2146,-0.65705155,-1801,-0.551421175
2020-02-12 19:54:29.639,954,746,46.6250889302996,5,0.312500596047585,-1702,-0.52110985,-1791,-0.548359425
2020-02-12 19:54:29.639,955,709,44.3125845195475,16,1.00000190735227,-1876,-0.5743843,-1785,-0.546522375
2020-02-12 19:54:29.639,956,720,45.0000858308522,0,0,-1989,-0.608982075,-1781,-0.545297675
2020-02-12 19:54:29.670,957,744,46.5000886918806,18,1.1250021457713,-1670,-0.51131225,-1775,-0.543460625
2020-02-12 19:54:29.670,958,689,43.0625821353572,0,0,-2099,-0.642661325,-1767,-0.541011225
2020-02-12 19:54:29.670,959,747,46.6875890495091,5,0.312500596047585,-2310,-0.70726425,-1766,-0.54070505
2020-02-12 19:54:29.670,960,703,43.9375838042904,16,1.00000190735227,-1940,-0.5939795,-1769,-0.541623575
2020-02-12 19:54:29.670,961,721,45.0625859500617,0,0,-1556,-0.4764083,-1771,-0.542235925
2020-02-12 19:54:29.702,962,745,46.5625888110901,19,1.18750226498082,-1728,-0.5290704,-1770,-0.54192975
2020-02-12 19:54:29.702,963,694,43.3750827314047,0,0,-1868,-0.5719349,-1768,-0.5413174
2020-02-12 19:54:29.702,964,748,46.7500891687187,7,0.437500834466618,-1824,-0.5584632,-1761,-0.539174175
2020-02-12 19:54:29.702,965,711,44.4375847579665,16,1.00000190735227,-1851,-0.566729925,-1743,-0.533663025
2020-02-12 19:54:29.702,966,725,45.3125864268998,0,0,-1457,-0.446096975,-1717,-0.525702475
2020-02-12 19:54:29.702,967,747,46.6875890495091,16,1.00000190735227,-441,-0.135023175,-1686,-0.51621105
2020-02-12 19:54:29.702,968,695,43.4375828506143,0,0,194,0.05939795,-1660,-0.5082505
2020-02-12 19:54:29.733,969,750,46.8750894071377,7,0.437500834466618,1255,0.384249625,-1646,-0.50396405
2020-02-12 19:54:29.733,970,703,43.9375838042904,18,1.1250021457713,1445,0.442422875,-1637,-0.501208475
2020-02-12 19:54:29.733,971,726,45.3750865461093,0,0,-55,-0.016839625,-1631,-0.499371425
2020-02-12 19:54:29.733,972,748,46.7500891687187,18,1.1250021457713,-1873,-0.573465775,-1639,-0.501820825
2020-02-12 19:54:29.733,973,697,43.5625830890333,0,0,-2147,-0.657357725,-1662,-0.50886285
2020-02-12 19:54:29.733,974,749,46.8125892879282,7,0.437500834466618,-1875,-0.574078125,-1688,-0.5168234
2020-02-12 19:54:29.764,975,703,43.9375838042904,16,1.00000190735227,-1880,-0.575609,-1721,-0.526927175
2020-02-12 19:54:29.764,976,725,45.3125864268998,0,0,-1864,-0.5707102,-1766,-0.54070505
2020-02-12 19:54:29.764,977,746,46.6250889302996,18,1.1250021457713,-1614,-0.49416645,-1813,-0.555095275
2020-02-12 19:54:29.764,978,693,43.3125826121952,0,0,-1720,-0.526621,-1853,-0.567342275
2020-02-12 19:54:29.764,979,747,46.6875890495091,8,0.500000953676135,-1724,-0.5278457,-1884,-0.5768337
2020-02-12 19:54:29.764,980,698,43.6250832082428,16,1.00000190735227,-1615,-0.494472625,-1906,-0.58356955
2020-02-12 19:54:29.764,981,724,45.2500863076903,0,0,-1856,-0.5682608,-1915,-0.586325125
2020-02-12 19:54:29.764,982,744,46.5000886918806,18,1.1250021457713,-2130,-0.65215275,-1916,-0.5866313
2020-02-12 19:54:29.795,983,694,43.3750827314047,0,0,-2153,-0.659194775,-1898,-0.58112015
2020-02-12 19:54:29.795,984,748,46.7500891687187,8,0.500000953676135,-1887,-0.577752225,-1848,-0.5658114
2020-02-12 19:54:29.795,985,698,43.6250832082428,15,0.937501788142754,-2111,-0.646335425,-1760,-0.538868
2020-02-12 19:54:29.795,986,723,45.1875861884807,0,0,-2240,-0.685832,-1266,-0.38761755
2020-02-12 19:54:29.795,987,743,46.4375885726711,18,1.1250021457713,-1898,-0.58112015,-434,-0.13287995
2020-02-12 19:54:29.795,988,694,43.3750827314047,0,0,-1474,-0.45130195,-50,-0.01530875
2020-02-12 19:54:29.795,989,746,46.6250889302996,9,0.562501072885652,-1611,-0.493247925,-93,-0.028474275
2020-02-12 19:54:29.827,990,693,43.3125826121952,15,0.937501788142754,-1171,-0.358530925,-309,-0.094608075
2020-02-12 19:54:29.827,991,724,45.2500863076903,0,0,-1051,-0.321789925,-589,-0.180337075
2020-02-12 19:54:29.827,992,742,46.3750884534616,19,1.18750226498082,-1149,-0.351795075,-958,-0.29331565
2020-02-12 19:54:29.827,993,695,43.4375828506143,0,0,-959,-0.293621825,-1366,-0.41823505
2020-02-12 19:54:29.827,994,746,46.6250889302996,10,0.625001192095169,-785,-0.240347375,-1766,-0.54070505
2020-02-12 19:54:29.858,995,694,43.3750827314047,15,0.937501788142754,-776,-0.2375918,-2012,-0.6160241
2020-02-12 19:54:29.858,996,723,45.1875861884807,0,0,-1134,-0.34720245,-2004,-0.6135747
2020-02-12 19:54:29.858,997,741,46.312588334252,18,1.1250021457713,-739,-0.226263325,-1831,-0.560606425
2020-02-12 19:54:29.858,998,694,43.3750827314047,0,0,-745,-0.228100375,-1675,-0.512843125
2020-02-12 19:54:29.874,999,743,46.4375885726711,12,0.750001430514203,-740,-0.2265695,-1631,-0.499371425
2020-02-12 19:54:29.874,1000,688,43.0000820161476,12,0.750001430514203,-673,-0.206055775,-1652,-0.5058011
2020-02-12 19:54:29.874,1001,720,45.0000858308522,0,0,-470,-0.14390225,-1716,-0.5253963
2020-02-12 19:54:29.874,1002,738,46.1250879766235,18,1.1250021457713,-689,-0.210954575,-1831,-0.560606425
2020-02-12 19:54:29.874,1003,691,43.1875823737762,0,0,-621,-0.190134675,-1920,-0.587856
2020-02-12 19:54:29.874,1004,738,46.1250879766235,12,0.750001430514203,-297,-0.090933975,-1967,-0.602246225
2020-02-12 19:54:29.905,1005,681,42.562581181681,13,0.81250154972372,-300,-0.0918525,-1974,-0.60438945
2020-02-12 19:54:29.905,1006,713,44.5625849963856,0,0,-250,-0.07654375,-1953,-0.597959775
2020-02-12 19:54:29.905,1007,726,45.3750865461093,17,1.06250202656179,406,0.12430705,-1912,-0.5854066
2020-02-12 19:54:29.905,1008,680,42.5000810624715,0,0,-28,-0.0085729,-1857,-0.568566975
2020-02-12 19:54:29.905,1009,729,45.5625869037378,12,0.750001430514203,-109,-0.033373075,-1793,-0.548971775
2020-02-12 19:54:29.905,1010,667,41.6875795127478,12,0.750001430514203,119,0.036434825,-1623,-0.496922025
2020-02-12 19:54:29.936,1011,707,44.1875842811285,0,0,435,0.133186125,-1394,-0.42680795
2020-02-12 19:54:29.936,1012,722,45.1250860692712,17,1.06250202656179,182,0.05572385,-1328,-0.4066004
2020-02-12 19:54:29.936,1013,677,42.312580704843,0,0,-154,-0.04715095,-1317,-0.403232475
2020-02-12 19:54:29.936,1014,725,45.3125864268998,11,0.687501311304686,526,0.16104805,-1255,-0.384249625
2020-02-12 19:54:29.936,1015,666,41.6250793935383,12,0.750001430514203,392,0.1200206,-1163,-0.356081525
2020-02-12 19:54:29.936,1016,705,44.0625840427094,0,0,318,0.09736365,-1147,-0.351182725
2020-02-12 19:54:29.936,1017,720,45.0000858308522,19,1.18750226498082,582,0.17819385,-1024,-0.3135232
2020-02-12 19:54:29.967,1018,677,42.312580704843,0,0,437,0.133798475,-918,-0.28106865
2020-02-12 19:54:29.967,1019,722,45.1250860692712,14,0.875001668933237,136,0.0416398,-853,-0.261167275
2020-02-12 19:54:29.967,1020,660,41.2500786782812,12,0.750001430514203,43,0.013165525,-819,-0.250757325
2020-02-12 19:54:29.967,1021,702,43.8750836850809,0,0,171,0.052355925,-793,-0.242796775
2020-02-12 19:54:29.967,1022,717,44.8125854732236,19,1.18750226498082,-213,-0.065215275,-759,-0.232386825
2020-02-12 19:54:29.967,1023,674,42.1250803472144,0,0,-378,-0.11573415,-703,-0.215241025
2020-02-12 19:54:30.014,1024,720,45.0000858308522,14,0.875001668933237,-140,-0.0428645,-622,-0.19044085
2020-02-12 19:54:30.014,1025,657,41.0625783206526,11,0.687501311304686,-286,-0.08756605,-534,-0.16349745
2020-02-12 19:54:30.014,1026,697,43.5625830890333,0,0,-839,-0.256880825,-458,-0.14022815
2020-02-12 19:54:30.014,1027,708,44.250084400338,19,1.18750226498082,-739,-0.226263325,-389,-0.119102075
2020-02-12 19:54:30.014,1028,666,41.6250793935383,0,0,-678,-0.20758665,-317,-0.097057475
2020-02-12 19:54:30.045,1029,709,44.3125845195475,13,0.81250154972372,-693,-0.212179275,-245,-0.075012875
2020-02-12 19:54:30.045,1030,643,40.1875766517194,10,0.625001192095169,-955,-0.292397125,-171,-0.052355925
2020-02-12 19:54:30.045,1031,691,43.1875823737762,0,0,-626,-0.19166555,-89,-0.027249575
2020-02-12 19:54:30.045,1032,703,43.9375838042904,18,1.1250021457713,-736,-0.2253448,-9,-0.002755575
2020-02-12 19:54:30.045,1033,664,41.5000791551192,0,0,-817,-0.250144975,64,0.0195952
2020-02-12 19:54:30.045,1034,707,44.1875842811285,14,0.875001668933237,-684,-0.2094237,130,0.03980275
2020-02-12 19:54:30.045,1035,645,40.3125768901384,10,0.625001192095169,-577,-0.176662975,181,0.055417675
2020-02-12 19:54:30.077,1036,692,43.2500824929857,0,0,-867,-0.265453725,220,0.0673585
2020-02-12 19:54:30.077,1037,700,43.7500834466618,18,1.1250021457713,-488,-0.1494134,252,0.0771561
2020-02-12 19:54:30.077,1038,664,41.5000791551192,0,0,-644,-0.1971767,275,0.084198125
2020-02-12 19:54:30.077,1039,705,44.0625840427094,15,0.937501788142754,-781,-0.239122675,276,0.0845043
2020-02-12 19:54:30.077,1040,640,40.0000762940908,9,0.562501072885652,-789,-0.241572075,259,0.079299325
2020-02-12 19:54:30.077,1041,689,43.0625821353572,0,0,-505,-0.154618375,231,0.070726425
2020-02-12 19:54:30.124,1042,699,43.6875833274523,19,1.18750226498082,-367,-0.112366225,187,0.057254725
2020-02-12 19:54:30.124,1043,659,41.1875785590717,0,0,-395,-0.120939125,122,0.03735335
2020-02-12 19:54:30.124,1044,701,43.8125835658714,14,0.875001668933237,-554,-0.16962095,45,0.013777875
2020-02-12 19:54:30.124,1045,637,39.8125759364623,8,0.500000953676135,-768,-0.2351424,-37,-0.011328475
2020-02-12 19:54:30.124,1046,687,42.9375818969381,0,0,-474,-0.14512695,-127,-0.038884225
2020-02-12 19:54:30.124,1047,695,43.4375828506143,17,1.06250202656179,-179,-0.054805325,-223,-0.068277025
2020-02-12 19:54:30.124,1048,657,41.0625783206526,0,0,-595,-0.182174125,-326,-0.09981305
2020-02-12 19:54:30.155,1049,698,43.6250832082428,16,1.00000190735227,-791,-0.242184425,-431,-0.131961425
2020-02-12 19:54:30.155,1050,631,39.4375752212052,6,0.375000715257102,-773,-0.236673275,-527,-0.161354225
2020-02-12 19:54:30.155,1051,685,42.8125816585191,0,0,-406,-0.12430705,-600,-0.183705
2020-02-12 19:54:30.155,1052,694,43.3750827314047,19,1.18750226498082,-653,-0.199932275,-651,-0.199319925
2020-02-12 19:54:30.155,1053,657,41.0625783206526,0,0,-300,-0.0918525,-684,-0.2094237
2020-02-12 19:54:30.155,1054,697,43.5625830890333,16,1.00000190735227,-371,-0.113590925,-701,-0.214628675
2020-02-12 19:54:30.155,1055,631,39.4375752212052,6,0.375000715257102,-752,-0.2302436,-710,-0.21738425
2020-02-12 19:54:30.186,1056,686,42.8750817777286,0,0,-920,-0.281681,-723,-0.221364525
2020-02-12 19:54:30.186,1057,692,43.2500824929857,20,1.25000238419034,-735,-0.225038625,-735,-0.225038625
2020-02-12 19:54:30.186,1058,658,41.1250784398621,0,0,-746,-0.22840655,-732,-0.2241201
2020-02-12 19:54:30.186,1059,700,43.7500834466618,17,1.06250202656179,-887,-0.271577225,-713,-0.218302775
2020-02-12 19:54:30.186,1060,629,39.3125749827861,4,0.250000476838068,-999,-0.305868825,-683,-0.209117525
2020-02-12 19:54:30.186,1061,687,42.9375818969381,0,0,-630,-0.19289025,-652,-0.1996261
2020-02-12 19:54:30.216,1062,694,43.3750827314047,20,1.25000238419034,-941,-0.288110675,-630,-0.19289025
2020-02-12 19:54:30.216,1063,660,41.2500786782812,0,0,-1348,-0.4127239,-613,-0.187685275
2020-02-12 19:54:30.216,1064,698,43.6250832082428,16,1.00000190735227,-665,-0.203606375,-595,-0.182174125
2020-02-12 19:54:30.216,1065,630,39.3750751019957,4,0.250000476838068,-841,-0.257493175,-580,-0.1775815
2020-02-12 19:54:30.216,1066,689,43.0625821353572,0,0,-1248,-0.3821064,-572,-0.1751321
2020-02-12 19:54:30.216,1067,693,43.3125826121952,18,1.1250021457713,-1253,-0.383637275,-562,-0.17207035
2020-02-12 19:54:30.216,1068,663,41.4375790359097,0,0,-804,-0.2461647,-548,-0.1677839
2020-02-12 19:54:30.216,1069,701,43.8125835658714,17,1.06250202656179,-955,-0.292397125,-538,-0.16472215
2020-02-12 19:54:30.245,1070,630,39.3750751019957,2,0.125000238419034,-1110,-0.33985425,-535,-0.163803625
2020-02-12 19:54:30.245,1071,687,42.9375818969381,0,0,-991,-0.303419425,-537,-0.164415975
2020-02-12 19:54:30.245,1072,694,43.3750827314047,20,1.25000238419034,-1015,-0.310767625,-544,-0.1665592
2020-02-12 19:54:30.245,1073,662,41.3750789167002,0,0,-776,-0.2375918,-552,-0.1690086
2020-02-12 19:54:30.245,1074,699,43.6875833274523,16,1.00000190735227,-570,-0.17451975,-561,-0.171764175
2020-02-12 19:54:30.245,1075,630,39.3750751019957,1,0.0625001192095169,-1126,-0.34475305,-577,-0.176662975
2020-02-12 19:54:30.274,1076,691,43.1875823737762,0,0,-1540,-0.4715095,-600,-0.183705
2020-02-12 19:54:30.274,1077,695,43.4375828506143,20,1.25000238419034,-1129,-0.345671575,-625,-0.191359375
2020-02-12 19:54:30.274,1078,665,41.5625792743288,0,0,-1188,-0.3637359,-651,-0.199319925
2020-02-12 19:54:30.274,1079,703,43.9375838042904,17,1.06250202656179,-1311,-0.401395425,-683,-0.209117525
2020-02-12 19:54:30.274,1080,633,39.5625754596242,0,0,-1354,-0.41456095,-722,-0.22105835
2020-02-12 19:54:30.310,1081,695,43.4375828506143,0,0,-1478,-0.45252665,-758,-0.23208065
2020-02-12 19:54:30.310,1082,699,43.6875833274523,20,1.25000238419034,-1472,-0.4506896,-790,-0.24187825
2020-02-12 19:54:30.310,1083,669,41.8125797511668,0,0,-1600,-0.48988,-824,-0.2522882
2020-02-12 19:54:30.310,1084,706,44.1250841619189,18,1.1250021457713,-1458,-0.44640315,-861,-0.263616675
2020-02-12 19:54:30.310,1085,633,39.5625754596242,0,0,-1468,-0.4494649,-897,-0.274638975
2020-02-12 19:54:30.310,1086,697,43.5625830890333,0,0,-1732,-0.5302951,-931,-0.285048925
2020-02-12 19:54:30.338,1087,697,43.5625830890333,20,1.25000238419034,-1632,-0.4996776,-960,-0.293928
2020-02-12 19:54:30.338,1088,667,41.6875795127478,0,0,-1535,-0.469978625,-980,-0.3000515
2020-02-12 19:54:30.338,1089,706,44.1250841619189,18,1.1250021457713,-1685,-0.515904875,-996,-0.3049503
2020-02-12 19:54:30.338,1090,637,39.8125759364623,0,0,-1614,-0.49416645,-999,-0.305868825
2020-02-12 19:54:30.338,1091,700,43.7500834466618,0,0,-1357,-0.415479475,-989,-0.302807075
2020-02-12 19:54:30.338,1092,702,43.8750836850809,20,1.25000238419034,-1596,-0.4886553,-985,-0.301582375
2020-02-12 19:54:30.367,1093,675,42.1875804664239,0,0,-1179,-0.360980325,-993,-0.304031775
2020-02-12 19:54:30.367,1094,709,44.3125845195475,20,1.25000238419034,-537,-0.164415975,-999,-0.305868825
2020-02-12 19:54:30.367,1095,641,40.0625764133003,0,0,-12,-0.0036741,-1003,-0.307093525
2020-02-12 19:54:30.367,1096,708,44.250084400338,0,0,774,0.23697945,-1018,-0.31168615
2020-02-12 19:54:30.367,1097,704,44.0000839234999,20,1.25000238419034,1560,0.477633,-1045,-0.319952875
2020-02-12 19:54:30.402,1098,679,42.437580943262,0,0,1734,0.53090745,-1079,-0.330362825
2020-02-12 19:54:30.402,1099,713,44.5625849963856,19,1.18750226498082,-192,-0.0587856,-1115,-0.341385125
2020-02-12 19:54:30.402,1100,645,40.3125768901384,0,0,-1485,-0.454669875,-1152,-0.3527136
2020-02-12 19:54:30.402,1101,708,44.250084400338,0,0,-1328,-0.4066004,-1196,-0.3661853
2020-02-12 19:54:30.402,1102,708,44.250084400338,21,1.31250250339986,-1439,-0.440585825,-1251,-0.383024925
2020-02-12 19:54:30.402,1103,682,42.6250813008905,0,0,-1010,-0.30923675,-1310,-0.40108925
2020-02-12 19:54:30.431,1104,715,44.6875852348046,19,1.18750226498082,-879,-0.269127825,-1367,-0.418541225
2020-02-12 19:54:30.431,1105,648,40.500077247767,0,0,-898,-0.27494515,-1419,-0.434462325
2020-02-12 19:54:30.431,1106,714,44.6250851155951,0,0,-1159,-0.354856825,-1467,-0.449158725
2020-02-12 19:54:30.431,1107,710,44.375084638757,21,1.31250250339986,-1171,-0.358530925,-1506,-0.46109955
2020-02-12 19:54:30.431,1108,687,42.9375818969381,0,0,-1308,-0.4004769,-1531,-0.468753925
2020-02-12 19:54:30.431,1109,721,45.0625859500617,19,1.18750226498082,-1781,-0.545297675,-1547,-0.473652725
2020-02-12 19:54:30.459,1110,655,40.9375780822336,0,0,-1503,-0.460181025,-1550,-0.47457125
2020-02-12 19:54:30.459,1111,718,44.8750855924332,0,0,-1289,-0.394659575,-1530,-0.46844775
2020-02-12 19:54:30.459,1112,717,44.8125854732236,20,1.25000238419034,-1418,-0.43415615,-1478,-0.45252665
2020-02-12 19:54:30.459,1113,693,43.3125826121952,0,0,-1828,-0.5596879,-1381,-0.422827675
2020-02-12 19:54:30.494,1114,727,45.4375866653188,19,1.18750226498082,-1769,-0.541623575,-513,-0.157067775
2020-02-12 19:54:30.494,1115,659,41.1875785590717,0,0,-1493,-0.457119275,176,0.0538868
2020-02-12 19:54:30.494,1116,724,45.2500863076903,0,0,-1746,-0.53458155,388,0.1187959
2020-02-12 19:54:30.494,1117,718,44.8750855924332,21,1.31250250339986,-1548,-0.4739589,265,0.081136375
2020-02-12 19:54:30.494,1118,698,43.6250832082428,0,0,-1404,-0.4298697,66,0.02020755
2020-02-12 19:54:30.494,1119,729,45.5625869037378,20,1.25000238419034,-1441,-0.441198175,-191,-0.058479425
2020-02-12 19:54:30.494,1120,663,41.4375790359097,0,0,-1363,-0.417316525,-494,-0.15125045
2020-02-12 19:54:30.524,1121,727,45.4375866653188,0,0,-1374,-0.42068445,-772,-0.2363671
2020-02-12 19:54:30.524,1122,720,45.0000858308522,20,1.25000238419034,-1465,-0.448546375,-1063,-0.325464025
2020-02-12 19:54:30.524,1123,704,44.0000839234999,0,0,-1362,-0.41701035,-1267,-0.387923725
2020-02-12 19:54:30.524,1124,736,46.0000877382045,20,1.25000238419034,-1207,-0.369553225,-1248,-0.3821064
2020-02-12 19:54:30.524,1125,672,42.0000801087954,0,0,-1332,-0.4078251,-1118,-0.34230365
2020-02-12 19:54:30.524,1126,739,46.187588095833,0,0,-1333,-0.408131275,-1049,-0.321177575
2020-02-12 19:54:30.559,1127,729,45.5625869037378,21,1.31250250339986,-1203,-0.368328525,-1050,-0.32148375
2020-02-12 19:54:30.559,1128,714,44.6250851155951,0,0,-719,-0.220139825,-1091,-0.334036925
2020-02-12 19:54:30.559,1129,746,46.6250889302996,19,1.18750226498082,-767,-0.234836225,-1142,-0.34965185
2020-02-12 19:54:30.559,1130,679,42.437580943262,0,0,-730,-0.22350775,-1263,-0.386699025
2020-02-12 19:54:30.559,1131,742,46.3750884534616,0,0,-428,-0.1310429,-1363,-0.417316525
2020-02-12 19:54:30.559,1132,734,45.8750874997854,21,1.31250250339986,-344,-0.1053242,-1426,-0.43660555
2020-02-12 19:54:30.559,1133,715,44.6875852348046,0,0,-396,-0.1212453,-1458,-0.44640315
2020-02-12 19:54:30.589,1134,746,46.6250889302996,20,1.25000238419034,-254,-0.07776845,-1473,-0.450995775
2020-02-12 19:54:30.589,1135,682,42.6250813008905,0,0,-458,-0.14022815,-1484,-0.4543637
2020-02-12 19:54:30.589,1136,745,46.5625888110901,0,0,-471,-0.144208425,-1497,-0.458343975
2020-02-12 19:54:30.589,1137,736,46.0000877382045,21,1.31250250339986,-386,-0.11818355,-1509,-0.462018075
2020-02-12 19:54:30.589,1138,719,44.9375857116427,0,0,-129,-0.039496575,-1523,-0.466304525
2020-02-12 19:54:30.589,1139,749,46.8125892879282,20,1.25000238419034,-106,-0.03245455,-1542,-0.47212185
2020-02-12 19:54:30.589,1140,688,43.0000820161476,0,0,-245,-0.075012875,-1560,-0.477633
2020-02-12 19:54:30.617,1141,752,47.0000896455567,0,0,-118,-0.03612865,-1560,-0.477633
2020-02-12 19:54:30.617,1142,741,46.312588334252,21,1.31250250339986,25,0.007654375,-1536,-0.4702848
2020-02-12 19:54:30.617,1143,727,45.4375866653188,0,0,-84,-0.0257187,-1493,-0.457119275
2020-02-12 19:54:30.617,1144,755,47.1875900031853,20,1.25000238419034,237,0.072563475,-1432,-0.4384426
2020-02-12 19:54:30.617,1145,692,43.2500824929857,0,0,61,0.018676675,-1362,-0.41701035
2020-02-12 19:54:30.617,1146,754,47.1250898839758,0,0,22,0.00673585,-1304,-0.3992522
2020-02-12 19:54:30.617,1147,740,46.2500882150425,20,1.25000238419034,-21,-0.006429675,-1263,-0.386699025
2020-02-12 19:54:30.617,1148,726,45.3750865461093,0,0,-240,-0.073482,-1226,-0.37537055
2020-02-12 19:54:30.617,1149,754,47.1250898839758,20,1.25000238419034,-678,-0.20758665,-1174,-0.35944945
2020-02-12 19:54:30.647,1150,689,43.0625821353572,0,0,-580,-0.1775815,-1093,-0.334649275
2020-02-12 19:54:30.647,1151,752,47.0000896455567,0,0,-452,-0.1383911,-987,-0.302194725
2020-02-12 19:54:30.647,1152,735,45.9375876189949,21,1.31250250339986,-538,-0.16472215,-871,-0.266678425
2020-02-12 19:54:30.647,1153,722,45.1250860692712,0,0,-655,-0.200544625,-765,-0.234223875
2020-02-12 19:54:30.647,1154,749,46.8125892879282,21,1.31250250339986,-665,-0.203606375,-675,-0.206668125
2020-02-12 19:54:30.647,1155,684,42.7500815393096,0,0,-921,-0.281987175,-600,-0.183705
2020-02-12 19:54:30.647,1156,742,46.3750884534616,0,0,-881,-0.269740175,-537,-0.164415975
2020-02-12 19:54:30.682,1157,723,45.1875861884807,20,1.25000238419034,-669,-0.204831075,-476,-0.1457393
2020-02-12 19:54:30.682,1158,707,44.1875842811285,0,0,-428,-0.1310429,-411,-0.125837925
2020-02-12 19:54:30.682,1159,730,45.6250870229474,18,1.1250021457713,-907,-0.277700725,-344,-0.1053242
2020-02-12 19:54:30.682,1160,663,41.4375790359097,0,0,-945,-0.289335375,-285,-0.087259875
2020-02-12 19:54:30.682,1161,719,44.9375857116427,0,0,-543,-0.166253025,-237,-0.072563475
2020-02-12 19:54:30.682,1162,696,43.5000829698238,21,1.31250250339986,-438,-0.13410465,-200,-0.061235
2020-02-12 19:54:30.712,1163,682,42.6250813008905,0,0,-419,-0.128287325,-168,-0.0514374
2020-02-12 19:54:30.712,1164,706,44.1250841619189,19,1.18750226498082,-393,-0.120326775,-137,-0.041945975
2020-02-12 19:54:30.712,1165,640,40.0000762940908,0,0,-729,-0.223201575,-109,-0.033373075
2020-02-12 19:54:30.712,1166,698,43.6250832082428,0,0,-479,-0.146657825,-94,-0.02878045
2020-02-12 19:54:30.712,1167,677,42.312580704843,19,1.18750226498082,-474,-0.14512695,-92,-0.0281681
2020-02-12 19:54:30.741,1168,669,41.8125797511668,0,0,-504,-0.1543122,-102,-0.03122985
2020-02-12 19:54:30.741,1169,695,43.4375828506143,19,1.18750226498082,-537,-0.164415975,-125,-0.038271875
2020-02-12 19:54:30.741,1170,633,39.5625754596242,0,0,-367,-0.112366225,-165,-0.050518875
2020-02-12 19:54:30.741,1171,693,43.3125826121952,0,0,-241,-0.073788175,-219,-0.067052325
2020-02-12 19:54:30.741,1172,671,41.9375799895859,19,1.18750226498082,-538,-0.16472215,-285,-0.087259875
2020-02-12 19:54:30.741,1173,662,41.3750789167002,0,0,-588,-0.1800309,-358,-0.10961065
2020-02-12 19:54:30.773,1174,688,43.0000820161476,19,1.18750226498082,-269,-0.082361075,-430,-0.13165525
2020-02-12 19:54:30.773,1175,626,39.1250746251576,0,0,-398,-0.12185765,-501,-0.153393675
2020-02-12 19:54:30.773,1176,688,43.0000820161476,0,0,-432,-0.1322676,-572,-0.1751321
2020-02-12 19:54:30.773,1177,665,41.5625792743288,18,1.1250021457713,-102,-0.03122985,-635,-0.194421125
2020-02-12 19:54:30.773,1178,661,41.3125787974907,0,0,-274,-0.08389195,-678,-0.20758665
2020-02-12 19:54:30.773,1179,687,42.9375818969381,20,1.25000238419034,-552,-0.1690086,-700,-0.2143225
2020-02-12 19:54:30.808,1180,630,39.3750751019957,0,0,-682,-0.20881135,-702,-0.21493485
2020-02-12 19:54:30.808,1181,689,43.0625821353572,3,0.187500357628551,-113,-0.034597775,-692,-0.2118731
2020-02-12 19:54:30.808,1182,663,41.4375790359097,19,1.18750226498082,-319,-0.097669825,-681,-0.208505175
2020-02-12 19:54:30.808,1183,662,41.3750789167002,0,0,-180,-0.0551115,-666,-0.20391255
2020-02-12 19:54:30.808,1184,690,43.1250822545667,18,1.1250021457713,-255,-0.078074625,-646,-0.19778905
2020-02-12 19:54:30.837,1185,632,39.5000753404147,0,0,-352,-0.1077736,-626,-0.19166555
2020-02-12 19:54:30.837,1186,693,43.3125826121952,1,0.0625001192095169,-484,-0.1481887,-605,-0.185235875
2020-02-12 19:54:30.837,1187,665,41.5625792743288,19,1.18750226498082,-458,-0.14022815,-573,-0.175438275
2020-02-12 19:54:30.867,1188,668,41.7500796319573,0,0,-711,-0.217690425,-534,-0.16349745
2020-02-12 19:54:30.867,1189,694,43.3750827314047,18,1.1250021457713,-987,-0.302194725,-504,-0.1543122
2020-02-12 19:54:30.867,1190,636,39.7500758172528,0,0,-1126,-0.34475305,-489,-0.149719575
2020-02-12 19:54:30.867,1191,696,43.5000829698238,4,0.250000476838068,-761,-0.232999175,-481,-0.147270175
2020-02-12 19:54:30.867,1192,669,41.8125797511668,18,1.1250021457713,-708,-0.2167719,-474,-0.14512695
2020-02-12 19:54:30.898,1193,670,41.8750798703763,0,0,-992,-0.3037256,-461,-0.141146675
2020-02-12 19:54:30.898,1194,698,43.6250832082428,19,1.18750226498082,-938,-0.28719215,-442,-0.13532935
2020-02-12 19:54:30.898,1195,641,40.0625764133003,0,0,-1024,-0.3135232,-422,-0.12920585
2020-02-12 19:54:30.898,1196,702,43.8750836850809,4,0.250000476838068,-772,-0.2363671,-409,-0.125225575
2020-02-12 19:54:30.898,1197,669,41.8125797511668,19,1.18750226498082,-823,-0.251982025,-401,-0.122776175
2020-02-12 19:54:30.898,1198,676,42.2500805856334,0,0,-827,-0.253206725,-394,-0.12063295
2020-02-12 19:54:30.898,1199,702,43.8750836850809,17,1.06250202656179,-920,-0.281681,-388,-0.1187959
2020-02-12 19:54:30.898,1200,649,40.5625773669765,0,0,-1078,-0.33005665,-380,-0.1163465
2020-02-12 19:54:30.934,1201,706,44.1250841619189,4,0.250000476838068,-1096,-0.3355678,-368,-0.1126724
2020-02-12 19:54:30.934,1202,675,42.1875804664239,18,1.1250021457713,-874,-0.26759695,-357,-0.109304475
2020-02-12 19:54:30.934,1203,683,42.6875814201001,0,0,-986,-0.30188855,-347,-0.106242725
2020-02-12 19:54:30.934,1204,707,44.1875842811285,18,1.1250021457713,-782,-0.23942885,-340,-0.1040995
2020-02-12 19:54:30.934,1205,653,40.8125778438146,0,0,-479,-0.146657825,-347,-0.106242725
2020-02-12 19:54:30.934,1206,712,44.5000848771761,7,0.437500834466618,-429,-0.131349075,-373,-0.114203275
2020-02-12 19:54:30.934,1207,675,42.1875804664239,16,1.00000190735227,-332,-0.1016501,-410,-0.12553175
2020-02-12 19:54:30.963,1208,687,42.9375818969381,0,0,-445,-0.136247875,-451,-0.138084925
2020-02-12 19:54:30.963,1209,712,44.5000848771761,18,1.1250021457713,-595,-0.182174125,-496,-0.1518628
2020-02-12 19:54:30.963,1210,658,41.1250784398621,0,0,-514,-0.15737395,-548,-0.1677839
2020-02-12 19:54:30.963,1211,716,44.7500853540141,5,0.312500596047585,-385,-0.117877375,-605,-0.185235875
2020-02-12 19:54:30.963,1212,677,42.312580704843,17,1.06250202656179,-538,-0.16472215,-664,-0.2033002
2020-02-12 19:54:30.993,1213,689,43.0625821353572,0,0,-316,-0.0967513,-721,-0.220752175
2020-02-12 19:54:30.993,1214,714,44.6250851155951,16,1.00000190735227,-221,-0.067664675,-772,-0.2363671
2020-02-12 19:54:30.993,1215,660,41.2500786782812,0,0,-320,-0.097976,-819,-0.250757325
2020-02-12 19:54:30.993,1216,716,44.7500853540141,5,0.312500596047585,-413,-0.126450275,-858,-0.26269815
2020-02-12 19:54:30.993,1217,675,42.1875804664239,17,1.06250202656179,-211,-0.064602925,-886,-0.27127105
2020-02-12 19:54:30.993,1218,690,43.1250822545667,0,0,630,0.19289025,-903,-0.276476025
2020-02-12 19:54:30.993,1219,713,44.5625849963856,17,1.06250202656179,1439,0.440585825,-915,-0.280150125
2020-02-12 19:54:31.024,1220,660,41.2500786782812,0,0,1870,0.57254725,-926,-0.28351805
2020-02-12 19:54:31.024,1221,715,44.6875852348046,6,0.375000715257102,2602,0.79666735,-930,-0.28474275
2020-02-12 19:54:31.024,1222,675,42.1875804664239,16,1.00000190735227,1777,0.544072975,-919,-0.281374825
2020-02-12 19:54:31.024,1223,691,43.1875823737762,0,0,104,0.0318422,-895,-0.274026625
2020-02-12 19:54:31.024,1224,711,44.4375847579665,17,1.06250202656179,-527,-0.161354225,-864,-0.2645352
2020-02-12 19:54:31.024,1225,660,41.2500786782812,0,0,-477,-0.146045475,-830,-0.25412525
2020-02-12 19:54:31.024,1226,715,44.6875852348046,7,0.437500834466618,-626,-0.19166555,-796,-0.2437153
2020-02-12 19:54:31.059,1227,670,41.8750798703763,16,1.00000190735227,-354,-0.10838595,-757,-0.231774475
2020-02-12 19:54:31.059,1228,692,43.2500824929857,0,0,-558,-0.17084565,-712,-0.2179966
2020-02-12 19:54:31.059,1229,712,44.5000848771761,18,1.1250021457713,-480,-0.146964,-664,-0.2033002
2020-02-12 19:54:31.059,1230,661,41.3125787974907,0,0,-547,-0.167477725,-614,-0.18799145
2020-02-12 19:54:31.059,1231,716,44.7500853540141,8,0.500000953676135,-565,-0.172988875,-561,-0.171764175
2020-02-12 19:54:31.087,1232,669,41.8125797511668,17,1.06250202656179,-550,-0.16839625,-510,-0.15614925
2020-02-12 19:54:31.087,1233,690,43.1250822545667,0,0,-433,-0.132573775,-467,-0.142983725
2020-02-12 19:54:31.087,1234,712,44.5000848771761,17,1.06250202656179,108,0.0330669,-429,-0.131349075
2020-02-12 19:54:31.087,1235,661,41.3125787974907,0,0,-298,-0.09124015,-380,-0.1163465
2020-02-12 19:54:31.087,1236,715,44.6875852348046,9,0.562501072885652,-317,-0.097057475,-306,-0.09368955
2020-02-12 19:54:31.087,1237,666,41.6250793935383,15,0.937501788142754,-508,-0.1555369,-194,-0.05939795
2020-02-12 19:54:31.087,1238,692,43.2500824929857,0,0,-449,-0.137472575,578,0.17696915
2020-02-12 19:54:31.117,1239,712,44.5000848771761,17,1.06250202656179,-514,-0.15737395,1079,0.330362825
2020-02-12 19:54:31.117,1240,664,41.5000791551192,0,0,-8,-0.0024494,1159,0.354856825
2020-02-12 19:54:31.117,1241,713,44.5625849963856,9,0.562501072885652,-154,-0.04715095,1023,0.313217025
2020-02-12 19:54:31.117,1242,666,41.6250793935383,16,1.00000190735227,-287,-0.087872225,809,0.247695575
2020-02-12 19:54:31.117,1243,693,43.3125826121952,0,0,-419,-0.128287325,533,0.163191275
2020-02-12 19:54:31.117,1244,712,44.5000848771761,17,1.06250202656179,-528,-0.1616604,237,0.072563475
2020-02-12 19:54:31.147,1245,664,41.5000791551192,0,0,-745,-0.228100375,-130,-0.03980275
2020-02-12 19:54:31.147,1246,717,44.8125854732236,9,0.562501072885652,-517,-0.158292475,-504,-0.1543122
2020-02-12 19:54:31.147,1247,664,41.5000791551192,14,0.875001668933237,-460,-0.1408405,-673,-0.206055775
2020-02-12 19:54:31.147,1248,695,43.4375828506143,0,0,-292,-0.0894031,-637,-0.195033475
2020-02-12 19:54:31.147,1249,715,44.6875852348046,18,1.1250021457713,-617,-0.188909975,-511,-0.156455425
2020-02-12 19:54:31.183,1250,668,41.7500796319573,0,0,-957,-0.293009475,-358,-0.10961065
2020-02-12 19:54:31.183,1251,719,44.9375857116427,11,0.687501311304686,-496,-0.1518628,-236,-0.0722573
2020-02-12 19:54:31.183,1252,670,41.8750798703763,14,0.875001668933237,-324,-0.0992007,-242,-0.07409435
2020-02-12 19:54:31.183,1253,698,43.6250832082428,0,0,-456,-0.1396158,-402,-0.12308235
2020-02-12 19:54:31.183,1254,720,45.0000858308522,17,1.06250202656179,-334,-0.10226245,-478,-0.14635165
2020-02-12 19:54:31.183,1255,671,41.9375799895859,0,0,-421,-0.128899675,-506,-0.15492455
2020-02-12 19:54:31.183,1256,723,45.1875861884807,10,0.625001192095169,-529,-0.161966575,-498,-0.15247515
2020-02-12 19:54:31.183,1257,666,41.6250793935383,14,0.875001668933237,-427,-0.130736725,-460,-0.1408405
2020-02-12 19:54:31.218,1258,703,43.9375838042904,0,0,-803,-0.245858525,-410,-0.12553175
2020-02-12 19:54:31.218,1259,720,45.0000858308522,17,1.06250202656179,-310,-0.09491425,-360,-0.110223
2020-02-12 19:54:31.218,1260,675,42.1875804664239,0,0,-474,-0.14512695,-318,-0.09736365
2020-02-12 19:54:31.218,1261,726,45.3750865461093,11,0.687501311304686,-90,-0.02755575,-293,-0.089709275
2020-02-12 19:54:31.218,1262,672,42.0000801087954,14,0.875001668933237,-171,-0.052355925,-297,-0.090933975
2020-02-12 19:54:31.218,1263,706,44.1250841619189,0,0,-85,-0.026024875,-326,-0.09981305
2020-02-12 19:54:31.218,1264,723,45.1875861884807,17,1.06250202656179,233,0.071338775,-365,-0.111753875
2020-02-12 19:54:31.218,1265,679,42.437580943262,0,0,-277,-0.084810475,-402,-0.12308235
2020-02-12 19:54:31.218,1266,727,45.4375866653188,12,0.750001430514203,-420,-0.1285935,-426,-0.13043055
2020-02-12 19:54:31.250,1267,669,41.8125797511668,12,0.750001430514203,-412,-0.1261441,-437,-0.133798475
2020-02-12 19:54:31.250,1268,708,44.250084400338,0,0,9,0.002755575,-439,-0.134410825
2020-02-12 19:54:31.250,1269,724,45.2500863076903,18,1.1250021457713,-26,-0.00796055,-442,-0.13532935
2020-02-12 19:54:31.250,1270,681,42.562581181681,0,0,-767,-0.234836225,-459,-0.140534325
2020-02-12 19:54:31.250,1271,728,45.5000867845283,14,0.875001668933237,-602,-0.18431735,-492,-0.1506381
2020-02-12 19:54:31.250,1272,673,42.0625802280049,13,0.81250154972372,-339,-0.103793325,-526,-0.16104805
2020-02-12 19:54:31.250,1273,711,44.4375847579665,0,0,-998,-0.30556265,-544,-0.1665592
2020-02-12 19:54:31.250,1274,725,45.3125864268998,18,1.1250021457713,-870,-0.26637225,-539,-0.165028325
2020-02-12 19:54:31.281,1275,682,42.6250813008905,0,0,-1109,-0.339548075,-519,-0.158904825
2020-02-12 19:54:31.281,1276,732,45.7500872613664,12,0.750001430514203,-1142,-0.34965185,-498,-0.15247515
2020-02-12 19:54:31.281,1277,670,41.8750798703763,11,0.687501311304686,-1183,-0.362205025,-482,-0.14757635
2020-02-12 19:54:31.281,1278,712,44.5000848771761,0,0,-1391,-0.425889425,-470,-0.14390225
2020-02-12 19:54:31.281,1279,728,45.5000867845283,20,1.25000238419034,-1461,-0.447321675,-462,-0.14145285
